,train loss,val loss,train acc,val acc,lr
0,0.623387336730957,0.6365839242935181,0.69,0.64,0.001
1,0.612051784992218,0.6289722323417664,0.69,0.64,0.001
2,0.6021694540977478,0.6223910450935364,0.69,0.64,0.001
3,0.5938239097595215,0.6163679361343384,0.7,0.64,0.001
4,0.5871167182922363,0.6109398603439331,0.7,0.64,0.001
5,0.5813922882080078,0.6059056520462036,0.72,0.66,0.001
6,0.5762799978256226,0.6014224886894226,0.73,0.67,0.001
7,0.5716703534126282,0.5973570346832275,0.73,0.66,0.001
8,0.5675358772277832,0.5937420129776001,0.75,0.68,0.001
9,0.5638076066970825,0.5905622839927673,0.77,0.69,0.001
10,0.5604686141014099,0.5877659320831299,0.78,0.7,0.001
11,0.5574284791946411,0.5851763486862183,0.79,0.72,0.001
12,0.5545955896377563,0.5828948020935059,0.82,0.72,0.001
13,0.5519886016845703,0.5808765888214111,0.83,0.72,0.001
14,0.5495531558990479,0.5791208744049072,0.82,0.73,0.001
15,0.5472525358200073,0.5775675773620605,0.81,0.73,0.001
16,0.5450904369354248,0.5761206150054932,0.82,0.75,0.001
17,0.5430517792701721,0.5747847557067871,0.82,0.75,0.001
18,0.5411112308502197,0.5734485387802124,0.82,0.75,0.001
19,0.539207935333252,0.5721105337142944,0.82,0.76,0.001
20,0.537317156791687,0.5707914233207703,0.82,0.78,0.001
21,0.5354340076446533,0.5695238709449768,0.82,0.78,0.001
22,0.533613383769989,0.5683119893074036,0.82,0.78,0.001
23,0.5318562388420105,0.5671719312667847,0.82,0.78,0.001
24,0.5301560163497925,0.5660837292671204,0.81,0.78,0.001
25,0.5285339951515198,0.5650046467781067,0.81,0.78,0.001
26,0.5269593000411987,0.5639333128929138,0.81,0.77,0.001
27,0.5253819823265076,0.5628870129585266,0.81,0.77,0.001
28,0.523786723613739,0.5618728399276733,0.81,0.77,0.001
29,0.5221753120422363,0.5608932971954346,0.81,0.77,0.001
30,0.5205740332603455,0.5599522590637207,0.81,0.76,0.001
31,0.519014835357666,0.5590652227401733,0.81,0.76,0.001
32,0.5174974203109741,0.5581989884376526,0.81,0.76,0.001
33,0.5160119533538818,0.557288408279419,0.81,0.76,0.001
34,0.5145085453987122,0.5563924908638,0.81,0.76,0.001
35,0.5129745006561279,0.5554829239845276,0.81,0.76,0.001
36,0.511451005935669,0.5545505285263062,0.81,0.76,0.001
37,0.5099428296089172,0.5536516308784485,0.81,0.76,0.001
38,0.5084264874458313,0.5527564883232117,0.81,0.75,0.001
39,0.5068728923797607,0.5519029498100281,0.81,0.75,0.001
40,0.5052703022956848,0.5511153936386108,0.81,0.75,0.001
41,0.503602921962738,0.5503614544868469,0.81,0.75,0.001
42,0.5018717646598816,0.5496065020561218,0.81,0.76,0.001
43,0.5001071691513062,0.5488258600234985,0.81,0.76,0.001
44,0.4982539713382721,0.5479447841644287,0.81,0.75,0.001
45,0.496318519115448,0.5471493005752563,0.81,0.75,0.001
46,0.4943124055862427,0.5464330911636353,0.82,0.76,0.001
47,0.4922080934047699,0.5458337664604187,0.83,0.76,0.001
48,0.4899875223636627,0.54494708776474,0.85,0.77,0.001
49,0.4876847565174103,0.5438043475151062,0.85,0.76,0.001
50,0.485270231962204,0.5428574681282043,0.85,0.76,0.001
51,0.48275142908096313,0.5421088933944702,0.85,0.77,0.001
52,0.4801115095615387,0.5408628582954407,0.85,0.77,0.001
53,0.47735974192619324,0.5393956303596497,0.87,0.77,0.001
54,0.47451668977737427,0.5383036732673645,0.88,0.78,0.001
55,0.47160235047340393,0.5373598337173462,0.88,0.79,0.001
56,0.468715637922287,0.5358800888061523,0.88,0.78,0.001
57,0.4658311903476715,0.5348961353302002,0.88,0.79,0.001
58,0.4628840982913971,0.5337391495704651,0.89,0.79,0.001
59,0.45999470353126526,0.5320355296134949,0.89,0.78,0.001
60,0.4571729004383087,0.5307604074478149,0.89,0.79,0.001
61,0.4543905556201935,0.5288892388343811,0.9,0.8,0.001
62,0.4515976309776306,0.5268466472625732,0.9,0.81,0.001
63,0.44880571961402893,0.524985671043396,0.9,0.81,0.001
64,0.44610413908958435,0.5223363041877747,0.9,0.82,0.001
65,0.44341185688972473,0.5200502872467041,0.91,0.83,0.001
66,0.4407002925872803,0.5172953009605408,0.92,0.82,0.001
67,0.4380367398262024,0.5146074295043945,0.92,0.82,0.001
68,0.4354921579360962,0.5122331380844116,0.92,0.83,0.001
69,0.4329702854156494,0.5091301202774048,0.92,0.83,0.001
70,0.4304274022579193,0.5068597197532654,0.92,0.84,0.001
71,0.4279104173183441,0.5046728849411011,0.92,0.84,0.001
72,0.42554935812950134,0.502794086933136,0.92,0.83,0.001
73,0.42323851585388184,0.5015384554862976,0.93,0.84,0.001
74,0.42091262340545654,0.49918147921562195,0.93,0.84,0.001
75,0.4184918701648712,0.49749115109443665,0.94,0.84,0.001
76,0.4162231683731079,0.4954647123813629,0.94,0.84,0.001
77,0.4141329228878021,0.49348515272140503,0.94,0.84,0.001
78,0.4121130406856537,0.4922470450401306,0.94,0.84,0.001
79,0.4100261926651001,0.48953738808631897,0.94,0.85,0.001
80,0.40781235694885254,0.4875658452510834,0.94,0.85,0.001
81,0.4057927429676056,0.48573586344718933,0.94,0.86,0.001
82,0.40386253595352173,0.4839220345020294,0.95,0.85,0.001
83,0.4018196165561676,0.4831569790840149,0.95,0.86,0.001
84,0.3997350335121155,0.48135101795196533,0.96,0.85,0.001
85,0.3977428078651428,0.4792911112308502,0.97,0.86,0.001
86,0.39583611488342285,0.47774216532707214,0.97,0.88,0.001
87,0.39391055703163147,0.47624722123146057,0.98,0.89,0.001
88,0.39206480979919434,0.47563639283180237,0.98,0.87,0.001
89,0.3902408480644226,0.47480908036231995,0.98,0.86,0.001
90,0.38846856355667114,0.47309085726737976,0.98,0.87,0.001
91,0.38676488399505615,0.47136005759239197,0.98,0.88,0.001
92,0.3851342797279358,0.4689147472381592,0.98,0.88,0.001
93,0.38360801339149475,0.4693849980831146,0.98,0.88,0.001
94,0.38212844729423523,0.4675702154636383,0.98,0.88,0.001
95,0.38053470849990845,0.4670010507106781,0.98,0.88,0.001
96,0.37868639826774597,0.46491920948028564,0.98,0.88,0.001
97,0.37712565064430237,0.46323883533477783,0.98,0.88,0.001
98,0.3758016526699066,0.46362125873565674,0.98,0.88,0.001
99,0.3743545114994049,0.4624817967414856,0.98,0.88,0.001
100,0.3727535903453827,0.4621354341506958,0.98,0.88,0.001
101,0.37127700448036194,0.4609433710575104,0.98,0.88,0.001
102,0.3700442612171173,0.45896098017692566,0.98,0.88,0.001
103,0.36884692311286926,0.458812952041626,0.98,0.88,0.001
104,0.3674679100513458,0.45807820558547974,0.98,0.88,0.001
105,0.3660481572151184,0.4566560983657837,0.98,0.88,0.001
106,0.3646741211414337,0.45489302277565,0.98,0.88,0.001
107,0.3635113537311554,0.4534192383289337,0.98,0.88,0.001
108,0.3624406158924103,0.4536677896976471,0.99,0.88,0.001
109,0.36119401454925537,0.45183902978897095,0.99,0.88,0.001
110,0.35995933413505554,0.45030537247657776,0.99,0.88,0.001
111,0.3587375581264496,0.4496922194957733,0.99,0.88,0.001
112,0.3576669991016388,0.44916290044784546,1.0,0.88,0.001
113,0.3567063808441162,0.44841253757476807,1.0,0.88,0.001
114,0.3556133210659027,0.4469868540763855,1.0,0.88,0.001
115,0.35444745421409607,0.4464830756187439,1.0,0.88,0.001
116,0.3533926010131836,0.4460211992263794,1.0,0.88,0.001
117,0.3524170219898224,0.4448468089103699,1.0,0.88,0.001
118,0.3515612781047821,0.4442340135574341,1.0,0.88,0.001
119,0.3506804406642914,0.4439636468887329,1.0,0.88,0.001
120,0.3497407138347626,0.44310078024864197,1.0,0.88,0.001
121,0.34881627559661865,0.44238680601119995,1.0,0.88,0.001
122,0.3479865789413452,0.4415724277496338,1.0,0.88,0.001
123,0.34723415970802307,0.44185665249824524,1.0,0.88,0.001
124,0.34644919633865356,0.4405880272388458,1.0,0.88,0.001
125,0.3456414043903351,0.4399336576461792,1.0,0.9,0.001
126,0.3448282480239868,0.44017723202705383,1.0,0.88,0.001
127,0.34405195713043213,0.4397364854812622,1.0,0.88,0.001
128,0.343353807926178,0.4379992187023163,1.0,0.91,0.001
129,0.34266334772109985,0.4381412863731384,1.0,0.89,0.001
130,0.3420153558254242,0.4394230544567108,1.0,0.88,0.001
131,0.3414505124092102,0.43700748682022095,1.0,0.89,0.001
132,0.3408440351486206,0.4375361502170563,1.0,0.89,0.001
133,0.3402065932750702,0.43710049986839294,1.0,0.89,0.001
134,0.3395698070526123,0.43516048789024353,1.0,0.9,0.001
135,0.3388945460319519,0.4355422556400299,1.0,0.9,0.001
136,0.33832377195358276,0.43712082505226135,1.0,0.89,0.001
137,0.33782491087913513,0.4353964328765869,1.0,0.89,0.001
138,0.33729836344718933,0.4339270293712616,1.0,0.91,0.001
139,0.33676064014434814,0.434503436088562,1.0,0.91,0.001
140,0.3361978530883789,0.4343596398830414,1.0,0.91,0.001
141,0.3357057273387909,0.4332200884819031,1.0,0.91,0.001
142,0.3352469503879547,0.43423888087272644,1.0,0.89,0.001
143,0.3347921669483185,0.43420469760894775,1.0,0.88,0.001
144,0.33434218168258667,0.4332088828086853,1.0,0.89,0.001
145,0.3338789641857147,0.43368449807167053,1.0,0.91,0.001
146,0.3334580957889557,0.43435347080230713,1.0,0.9,0.001
147,0.3330521285533905,0.43254172801971436,1.0,0.91,0.001
148,0.33264079689979553,0.43245571851730347,1.0,0.91,0.001
149,0.3322511315345764,0.4327045679092407,1.0,0.91,0.001
150,0.33188605308532715,0.43180373311042786,1.0,0.9,0.001
151,0.331512451171875,0.4319950044155121,1.0,0.91,0.001
152,0.3311532735824585,0.4320768117904663,1.0,0.91,0.001
153,0.3308025598526001,0.431266188621521,1.0,0.91,0.001
154,0.330440491437912,0.43118831515312195,1.0,0.91,0.001
155,0.3300968408584595,0.4317655563354492,1.0,0.91,0.001
156,0.3297760784626007,0.4304850697517395,1.0,0.91,0.001
157,0.3294694423675537,0.43006011843681335,1.0,0.91,0.001
158,0.32917162775993347,0.4318588674068451,1.0,0.9,0.001
159,0.32889634370803833,0.43026942014694214,1.0,0.9,0.001
160,0.3286435604095459,0.4305557608604431,1.0,0.91,0.001
161,0.32840752601623535,0.4300765097141266,1.0,0.9,0.001
162,0.3280789256095886,0.4306654632091522,1.0,0.9,0.001
163,0.3277745842933655,0.4285362958908081,1.0,0.91,0.001
164,0.3275180160999298,0.429824560880661,1.0,0.91,0.001
165,0.3272695243358612,0.4294452369213104,1.0,0.91,0.001
166,0.3270549476146698,0.4277075231075287,1.0,0.91,0.001
167,0.326811283826828,0.4287237524986267,1.0,0.91,0.001
168,0.3265650272369385,0.4285426437854767,1.0,0.91,0.001
169,0.3263469636440277,0.4271000325679779,1.0,0.91,0.001
170,0.32612621784210205,0.4268844723701477,1.0,0.91,0.001
171,0.3259139955043793,0.4275679886341095,1.0,0.91,0.001
172,0.32570984959602356,0.4265991449356079,1.0,0.91,0.001
173,0.32549944519996643,0.42644205689430237,1.0,0.91,0.001
174,0.3253100514411926,0.42717334628105164,1.0,0.91,0.001
175,0.32512226700782776,0.42583325505256653,1.0,0.91,0.001
176,0.3249317407608032,0.42492759227752686,1.0,0.91,0.001
177,0.3247529864311218,0.4260440766811371,1.0,0.91,0.001
178,0.32456856966018677,0.42544883489608765,1.0,0.91,0.001
179,0.32440078258514404,0.42401137948036194,1.0,0.91,0.001
180,0.324239581823349,0.4242682158946991,1.0,0.91,0.001
181,0.3240656554698944,0.4245864748954773,1.0,0.91,0.001
182,0.32390666007995605,0.4246823489665985,1.0,0.91,0.001
183,0.32374343276023865,0.4243696928024292,1.0,0.91,0.001
184,0.32359734177589417,0.4247201681137085,1.0,0.91,0.001
185,0.3234423100948334,0.4228450655937195,1.0,0.91,0.001
186,0.32329490780830383,0.4234580993652344,1.0,0.91,0.001
187,0.32315728068351746,0.42485031485557556,1.0,0.91,0.001
188,0.32301872968673706,0.422798752784729,1.0,0.91,0.001
189,0.32288727164268494,0.42241010069847107,1.0,0.91,0.001
190,0.32275527715682983,0.42248085141181946,1.0,0.91,0.001
191,0.3226068913936615,0.42375466227531433,1.0,0.91,0.001
192,0.32248085737228394,0.42199012637138367,1.0,0.91,0.001
193,0.3223572075366974,0.4220898747444153,1.0,0.91,0.001
194,0.32223689556121826,0.4238383173942566,1.0,0.91,0.001
195,0.32212504744529724,0.421661376953125,1.0,0.91,0.001
196,0.3219969570636749,0.42257919907569885,1.0,0.91,0.001
197,0.3218751549720764,0.4225434362888336,1.0,0.91,0.001
198,0.3217621147632599,0.4212534725666046,1.0,0.91,0.001
199,0.3216612637042999,0.4223462641239166,1.0,0.91,0.001
200,0.32155826687812805,0.42157477140426636,1.0,0.91,0.001
201,0.3214346766471863,0.42235851287841797,1.0,0.91,0.001
202,0.32133275270462036,0.42106112837791443,1.0,0.91,0.001
203,0.3212338984012604,0.42102885246276855,1.0,0.91,0.001
204,0.32113510370254517,0.4233930706977844,1.0,0.91,0.001
205,0.32103487849235535,0.42101332545280457,1.0,0.91,0.001
206,0.32093098759651184,0.42024704813957214,1.0,0.91,0.001
207,0.320846289396286,0.42181283235549927,1.0,0.91,0.001
208,0.32075318694114685,0.4209898114204407,1.0,0.91,0.001
209,0.3206625282764435,0.4218685030937195,1.0,0.91,0.001
210,0.32056862115859985,0.4205254316329956,1.0,0.91,0.001
211,0.3204720616340637,0.42061060667037964,1.0,0.91,0.001
212,0.3203902542591095,0.42127886414527893,1.0,0.91,0.001
213,0.32030463218688965,0.4204196631908417,1.0,0.91,0.001
214,0.3202274739742279,0.42163321375846863,1.0,0.91,0.001
215,0.3201364576816559,0.4202967882156372,1.0,0.91,0.001
216,0.3200646936893463,0.4198521375656128,1.0,0.91,0.001
217,0.3199898898601532,0.42221179604530334,1.0,0.91,0.001
218,0.319904088973999,0.4198402464389801,1.0,0.91,0.001
219,0.3198288679122925,0.419829398393631,1.0,0.91,0.001
220,0.31974929571151733,0.41998738050460815,1.0,0.91,0.001
221,0.31968188285827637,0.42024096846580505,1.0,0.91,0.001
222,0.31961220502853394,0.420768141746521,1.0,0.91,0.001
223,0.31954196095466614,0.4187473952770233,1.0,0.91,0.001
224,0.3194732367992401,0.4206483066082001,1.0,0.91,0.001
225,0.31939685344696045,0.42010006308555603,1.0,0.91,0.001
226,0.31932854652404785,0.4191416800022125,1.0,0.91,0.001
227,0.31926801800727844,0.42056888341903687,1.0,0.91,0.001
228,0.31920915842056274,0.4191160202026367,1.0,0.91,0.001
229,0.31914013624191284,0.4199138283729553,1.0,0.91,0.001
230,0.31907546520233154,0.4188321828842163,1.0,0.91,0.001
231,0.3190120756626129,0.4196258783340454,1.0,0.91,0.001
232,0.3189510703086853,0.41986197233200073,1.0,0.91,0.001
233,0.3188963532447815,0.41837650537490845,1.0,0.91,0.001
234,0.31884264945983887,0.420355886220932,1.0,0.91,0.001
235,0.31878241896629333,0.4185582399368286,1.0,0.91,0.001
236,0.31872063875198364,0.41938555240631104,1.0,0.91,0.001
237,0.3186650574207306,0.41847148537635803,1.0,0.91,0.001
238,0.3186115026473999,0.4183710515499115,1.0,0.91,0.001
239,0.3185603618621826,0.4205438196659088,1.0,0.91,0.001
240,0.31850817799568176,0.41838765144348145,1.0,0.91,0.001
241,0.31845369935035706,0.41857627034187317,1.0,0.91,0.001
242,0.31840044260025024,0.4185992479324341,1.0,0.91,0.001
243,0.3183484971523285,0.41842812299728394,1.0,0.91,0.001
244,0.3183053135871887,0.41927722096443176,1.0,0.91,0.001
245,0.31825628876686096,0.4175933003425598,1.0,0.91,0.001
246,0.3182048797607422,0.4186091125011444,1.0,0.91,0.001
247,0.31815558671951294,0.41827261447906494,1.0,0.91,0.001
248,0.3181086480617523,0.41805362701416016,1.0,0.91,0.001
249,0.31807205080986023,0.4199312925338745,1.0,0.91,0.001
250,0.3180314898490906,0.4173817038536072,1.0,0.91,0.001
251,0.317979097366333,0.4184703826904297,1.0,0.91,0.001
252,0.31792953610420227,0.41824477910995483,1.0,0.91,0.001
253,0.3178892433643341,0.4175736606121063,1.0,0.91,0.001
254,0.3178519010543823,0.4193755090236664,1.0,0.91,0.001
255,0.31780731678009033,0.4171842932701111,1.0,0.91,0.001
256,0.31776145100593567,0.4174659848213196,1.0,0.91,0.001
257,0.3177226483821869,0.4189155101776123,1.0,0.91,0.001
258,0.3176870048046112,0.4173051714897156,1.0,0.91,0.001
259,0.3176453113555908,0.4184480607509613,1.0,0.91,0.001
260,0.31760308146476746,0.4174179434776306,1.0,0.91,0.001
261,0.3175598084926605,0.41794800758361816,1.0,0.91,0.001
262,0.31752437353134155,0.41790011525154114,1.0,0.91,0.001
263,0.31749022006988525,0.41720521450042725,1.0,0.91,0.001
264,0.31745266914367676,0.4174169600009918,1.0,0.91,0.001
265,0.3174186944961548,0.41704311966896057,1.0,0.91,0.001
266,0.31738415360450745,0.41696619987487793,1.0,0.91,0.001
267,0.3173503577709198,0.41918477416038513,1.0,0.91,0.001
268,0.3173127770423889,0.41648226976394653,1.0,0.91,0.001
269,0.31727349758148193,0.4165523946285248,1.0,0.91,0.001
270,0.3172427713871002,0.4180210828781128,1.0,0.91,0.001
271,0.3172110617160797,0.41647979617118835,1.0,0.91,0.001
272,0.31717649102211,0.41717177629470825,1.0,0.91,0.001
273,0.3171416223049164,0.4163883626461029,1.0,0.91,0.001
274,0.31710800528526306,0.4165758192539215,1.0,0.91,0.001
275,0.3170762360095978,0.41749119758605957,1.0,0.91,0.001
276,0.3170429468154907,0.41650140285491943,1.0,0.91,0.001
277,0.3170126676559448,0.41645511984825134,1.0,0.91,0.001
278,0.3169814348220825,0.4165746569633484,1.0,0.91,0.001
279,0.3169499337673187,0.41734787821769714,1.0,0.91,0.001
280,0.3169196546077728,0.41681334376335144,1.0,0.91,0.001
281,0.3168904185295105,0.41594284772872925,1.0,0.91,0.001
282,0.31686151027679443,0.4166509211063385,1.0,0.91,0.001
283,0.3168332576751709,0.4167942702770233,1.0,0.91,0.001
284,0.3168034553527832,0.41694679856300354,1.0,0.91,0.001
285,0.31677505373954773,0.4164556562900543,1.0,0.91,0.001
286,0.316748708486557,0.4163413643836975,1.0,0.91,0.001
287,0.31672003865242004,0.41664227843284607,1.0,0.91,0.001
288,0.31669312715530396,0.41638481616973877,1.0,0.91,0.001
289,0.3166658282279968,0.4164799451828003,1.0,0.91,0.001
290,0.3166404962539673,0.4164693057537079,1.0,0.91,0.001
291,0.3166157603263855,0.41642239689826965,1.0,0.91,0.001
292,0.31658947467803955,0.41599559783935547,1.0,0.91,0.001
293,0.31656402349472046,0.4164074957370758,1.0,0.91,0.001
294,0.31653937697410583,0.4159184396266937,1.0,0.91,0.001
295,0.3165132403373718,0.41615059971809387,1.0,0.91,0.001
296,0.31648769974708557,0.415944367647171,1.0,0.91,0.001
297,0.31646230816841125,0.4164896011352539,1.0,0.91,0.001
298,0.31644025444984436,0.4160924553871155,1.0,0.91,0.001
299,0.3164167106151581,0.41545748710632324,1.0,0.91,0.001
300,0.31639471650123596,0.41649967432022095,1.0,0.91,0.001
301,0.3163691461086273,0.4160395562648773,1.0,0.91,0.001
302,0.31634625792503357,0.41586512327194214,1.0,0.91,0.001
303,0.31632426381111145,0.4159793555736542,1.0,0.91,0.001
304,0.31630194187164307,0.41550707817077637,1.0,0.91,0.001
305,0.3162793219089508,0.41633057594299316,1.0,0.91,0.001
306,0.3162575364112854,0.4157641530036926,1.0,0.91,0.001
307,0.3162347674369812,0.41559314727783203,1.0,0.91,0.001
308,0.31621605157852173,0.416238397359848,1.0,0.91,0.001
309,0.3161976635456085,0.4146920144557953,1.0,0.91,0.001
310,0.31617650389671326,0.41701212525367737,1.0,0.91,0.001
311,0.3161526620388031,0.4158633351325989,1.0,0.91,0.001
312,0.3161335289478302,0.4147258400917053,1.0,0.91,0.001
313,0.31611374020576477,0.41630610823631287,1.0,0.91,0.001
314,0.31609046459198,0.4165044128894806,1.0,0.91,0.001
315,0.3160717785358429,0.4153948128223419,1.0,0.91,0.001
316,0.3160553276538849,0.415873646736145,1.0,0.91,0.001
317,0.3160341680049896,0.4150969386100769,1.0,0.91,0.001
318,0.31601378321647644,0.4160025417804718,1.0,0.91,0.001
319,0.3159959018230438,0.4159854054450989,1.0,0.91,0.001
320,0.3159776031970978,0.4146620035171509,1.0,0.91,0.001
321,0.3159578740596771,0.4160025417804718,1.0,0.91,0.001
322,0.3159388601779938,0.4163963794708252,1.0,0.91,0.001
323,0.3159226179122925,0.4144417941570282,1.0,0.91,0.001
324,0.31590601801872253,0.4156794250011444,1.0,0.91,0.001
325,0.3158867061138153,0.41547316312789917,1.0,0.91,0.001
326,0.31586754322052,0.41533362865448,1.0,0.91,0.001
327,0.3158511519432068,0.41613391041755676,1.0,0.91,0.001
328,0.3158358931541443,0.41418278217315674,1.0,0.91,0.001
329,0.3158171772956848,0.4160953462123871,1.0,0.91,0.001
330,0.31579917669296265,0.4165698289871216,1.0,0.91,0.001
331,0.31578415632247925,0.41430404782295227,1.0,0.91,0.001
332,0.315767377614975,0.4152444005012512,1.0,0.91,0.001
333,0.31574973464012146,0.41592273116111755,1.0,0.91,0.001
334,0.31573474407196045,0.41559353470802307,1.0,0.91,0.001
335,0.31572073698043823,0.4154621958732605,1.0,0.91,0.001
336,0.3157031536102295,0.413929283618927,1.0,0.91,0.001
337,0.3156885802745819,0.41574427485466003,1.0,0.91,0.001
338,0.31567221879959106,0.4162222743034363,1.0,0.91,0.001
339,0.3156558871269226,0.41470012068748474,1.0,0.91,0.001
340,0.31563910841941833,0.41446810960769653,1.0,0.91,0.001
341,0.31562483310699463,0.4158930480480194,1.0,0.91,0.001
342,0.31560999155044556,0.4153251349925995,1.0,0.91,0.001
343,0.31559455394744873,0.41436436772346497,1.0,0.91,0.001
344,0.31558048725128174,0.4149330258369446,1.0,0.91,0.001
345,0.3155653476715088,0.4141673743724823,1.0,0.91,0.001
346,0.3155517876148224,0.4151863157749176,1.0,0.91,0.001
347,0.3155355751514435,0.4152681827545166,1.0,0.91,0.001
348,0.3155228793621063,0.4147021472454071,1.0,0.91,0.001
349,0.3155093491077423,0.4144585132598877,1.0,0.91,0.001
350,0.3154948055744171,0.4144444763660431,1.0,0.91,0.001
351,0.3154810667037964,0.415009081363678,1.0,0.91,0.001
352,0.3154671788215637,0.4157411456108093,1.0,0.91,0.001
353,0.3154536485671997,0.4137481451034546,1.0,0.91,0.001
354,0.31543856859207153,0.4145950973033905,1.0,0.91,0.001
355,0.31542548537254333,0.4154500663280487,1.0,0.91,0.001
356,0.3154115378856659,0.4149807393550873,1.0,0.91,0.001
357,0.31540003418922424,0.4144158959388733,1.0,0.91,0.001
358,0.31538665294647217,0.4138694107532501,1.0,0.91,0.001
359,0.3153737485408783,0.4148668050765991,1.0,0.91,0.001
360,0.31536218523979187,0.4157671332359314,1.0,0.91,0.001
361,0.31534960865974426,0.41380974650382996,1.0,0.91,0.001
362,0.3153389096260071,0.4149251878261566,1.0,0.91,0.001
363,0.31532377004623413,0.41420841217041016,1.0,0.91,0.001
364,0.3153121769428253,0.4143509268760681,1.0,0.91,0.001
365,0.31530117988586426,0.41589128971099854,1.0,0.91,0.001
366,0.31528913974761963,0.4139655828475952,1.0,0.91,0.001
367,0.31527605652809143,0.4141797721385956,1.0,0.91,0.001
368,0.3152639865875244,0.41502803564071655,1.0,0.91,0.001
369,0.3152523934841156,0.41462597250938416,1.0,0.91,0.001
370,0.31524142622947693,0.4147728979587555,1.0,0.91,0.001
371,0.31522858142852783,0.41409972310066223,1.0,0.91,0.001
372,0.3152175843715668,0.4143810570240021,1.0,0.91,0.001
373,0.31520581245422363,0.4156700372695923,1.0,0.91,0.001
374,0.31519487500190735,0.41432610154151917,1.0,0.91,0.001
375,0.31518441438674927,0.41375792026519775,1.0,0.91,0.001
376,0.3151724338531494,0.41508233547210693,1.0,0.91,0.001
377,0.3151623010635376,0.41454917192459106,1.0,0.91,0.001
378,0.31515076756477356,0.4138948917388916,1.0,0.91,0.001
379,0.3151398003101349,0.41446933150291443,1.0,0.91,0.001
380,0.31512776017189026,0.41463032364845276,1.0,0.91,0.001
381,0.3151179254055023,0.4151735007762909,1.0,0.91,0.001
382,0.3151070475578308,0.4142046868801117,1.0,0.91,0.001
383,0.3150976002216339,0.4141523241996765,1.0,0.91,0.001
384,0.3150865435600281,0.41474953293800354,1.0,0.91,0.001
385,0.31507644057273865,0.4146929681301117,1.0,0.91,0.001
386,0.3150674104690552,0.41364505887031555,1.0,0.91,0.001
387,0.31505724787712097,0.414998322725296,1.0,0.91,0.001
388,0.31504586338996887,0.41411328315734863,1.0,0.91,0.001
389,0.31503626704216003,0.4142359793186188,1.0,0.91,0.001
390,0.3150266706943512,0.41470736265182495,1.0,0.91,0.001
391,0.3150177001953125,0.41388842463493347,1.0,0.91,0.001
392,0.31500786542892456,0.41437095403671265,1.0,0.91,0.001
393,0.31499823927879333,0.4144890308380127,1.0,0.91,0.001
394,0.3149893283843994,0.41416823863983154,1.0,0.91,0.001
395,0.3149797320365906,0.41457733511924744,1.0,0.91,0.001
396,0.3149697482585907,0.414208322763443,1.0,0.91,0.001
397,0.31495893001556396,0.41422098875045776,1.0,0.91,0.001
398,0.31494972109794617,0.41452446579933167,1.0,0.91,0.001
399,0.31494125723838806,0.41378265619277954,1.0,0.91,0.001
400,0.3149329721927643,0.4153580367565155,1.0,0.91,0.001
401,0.31492307782173157,0.41405636072158813,1.0,0.91,0.001
402,0.3149138391017914,0.4138445556163788,1.0,0.91,0.001
403,0.3149051368236542,0.41441968083381653,1.0,0.91,0.001
404,0.31489744782447815,0.41464877128601074,1.0,0.91,0.001
405,0.31488919258117676,0.41438621282577515,1.0,0.91,0.001
406,0.31488001346588135,0.41328921914100647,1.0,0.91,0.001
407,0.3148724436759949,0.4150680601596832,1.0,0.91,0.001
408,0.31486356258392334,0.41454318165779114,1.0,0.91,0.001
409,0.3148549199104309,0.41342437267303467,1.0,0.91,0.001
410,0.31484735012054443,0.4142826795578003,1.0,0.91,0.001
411,0.31483909487724304,0.4143518805503845,1.0,0.91,0.001
412,0.3148302733898163,0.4143729507923126,1.0,0.91,0.001
413,0.31482332944869995,0.4145037829875946,1.0,0.91,0.001
414,0.31481483578681946,0.41376793384552,1.0,0.91,0.001
415,0.31480705738067627,0.41390594840049744,1.0,0.91,0.001
416,0.3148013949394226,0.4150078594684601,1.0,0.91,0.001
417,0.31479284167289734,0.4135280251502991,1.0,0.91,0.001
418,0.31478407979011536,0.41384899616241455,1.0,0.91,0.001
419,0.3147760033607483,0.41478869318962097,1.0,0.91,0.001
420,0.31476882100105286,0.413621187210083,1.0,0.91,0.001
421,0.31476032733917236,0.41436681151390076,1.0,0.91,0.001
422,0.3147526681423187,0.4148728847503662,1.0,0.91,0.001
423,0.31474563479423523,0.4134048819541931,1.0,0.91,0.001
424,0.3147374093532562,0.41387131810188293,1.0,0.91,0.001
425,0.3147304952144623,0.4143148362636566,1.0,0.91,0.001
426,0.3147231638431549,0.41454166173934937,1.0,0.91,0.001
427,0.3147156834602356,0.414016455411911,1.0,0.91,0.001
428,0.3147083818912506,0.41332438588142395,1.0,0.91,0.001
429,0.31470128893852234,0.41419973969459534,1.0,0.91,0.001
430,0.3146944046020508,0.41477322578430176,1.0,0.91,0.001
431,0.314687579870224,0.41409409046173096,1.0,0.91,0.001
432,0.3146807551383972,0.41328930854797363,1.0,0.91,0.001
433,0.3146742582321167,0.41431906819343567,1.0,0.91,0.001
434,0.3146672546863556,0.4147202670574188,1.0,0.91,0.001
435,0.314659982919693,0.41431644558906555,1.0,0.91,0.001
436,0.3146529793739319,0.4128040373325348,1.0,0.91,0.001
437,0.3146456480026245,0.4143941402435303,1.0,0.91,0.001
438,0.31463903188705444,0.4149916470050812,1.0,0.91,0.001
439,0.3146323263645172,0.4141004979610443,1.0,0.91,0.001
440,0.3146258294582367,0.41351592540740967,1.0,0.91,0.001
441,0.3146194815635681,0.4138127267360687,1.0,0.91,0.001
442,0.3146127164363861,0.4149395823478699,1.0,0.91,0.001
443,0.31460535526275635,0.41419586539268494,1.0,0.91,0.001
444,0.3145998418331146,0.4132622182369232,1.0,0.91,0.001
445,0.31459224224090576,0.4138469696044922,1.0,0.91,0.001
446,0.3145862817764282,0.414287269115448,1.0,0.91,0.001
447,0.31458014249801636,0.41427406668663025,1.0,0.91,0.001
448,0.31457406282424927,0.4139012098312378,1.0,0.91,0.001
449,0.3145679235458374,0.41310176253318787,1.0,0.91,0.001
450,0.3145623505115509,0.41447094082832336,1.0,0.91,0.001
451,0.3145558536052704,0.4142538905143738,1.0,0.91,0.001
452,0.31454920768737793,0.4138438105583191,1.0,0.91,0.001
453,0.31454312801361084,0.41359373927116394,1.0,0.91,0.001
454,0.3145371675491333,0.4130277931690216,1.0,0.91,0.001
455,0.31453192234039307,0.4149688482284546,1.0,0.91,0.001
456,0.3145253658294678,0.414409339427948,1.0,0.91,0.001
457,0.31451958417892456,0.41307833790779114,1.0,0.91,0.001
458,0.3145126700401306,0.4130357801914215,1.0,0.91,0.001
459,0.31450772285461426,0.4147286117076874,1.0,0.91,0.001
460,0.3145015239715576,0.4140530824661255,1.0,0.91,0.001
461,0.3144952654838562,0.41345638036727905,1.0,0.91,0.001
462,0.3144894540309906,0.4135843515396118,1.0,0.91,0.001
463,0.3144841194152832,0.4141240417957306,1.0,0.91,0.001
464,0.3144785165786743,0.4148719906806946,1.0,0.91,0.001
465,0.31447291374206543,0.4132029712200165,1.0,0.91,0.001
466,0.31446707248687744,0.41299352049827576,1.0,0.91,0.001
467,0.3144613802433014,0.41418781876564026,1.0,0.91,0.001
468,0.3144553303718567,0.41456738114356995,1.0,0.91,0.001
469,0.3144500255584717,0.4137709140777588,1.0,0.91,0.001
470,0.31444451212882996,0.41389942169189453,1.0,0.91,0.001
471,0.31443890929222107,0.4132220447063446,1.0,0.91,0.001
472,0.31443271040916443,0.41438883543014526,1.0,0.91,0.001
473,0.3144276440143585,0.41432732343673706,1.0,0.91,0.001
474,0.3144227862358093,0.4133034646511078,1.0,0.91,0.001
475,0.3144172430038452,0.4131099283695221,1.0,0.91,0.001
476,0.31441253423690796,0.4145830571651459,1.0,0.91,0.001
477,0.3144071698188782,0.414096862077713,1.0,0.91,0.001
478,0.3144022822380066,0.4135088324546814,1.0,0.91,0.001
479,0.31439700722694397,0.4133450984954834,1.0,0.91,0.001
480,0.31439104676246643,0.413692444562912,1.0,0.91,0.001
481,0.31438666582107544,0.41532719135284424,1.0,0.91,0.001
482,0.31438273191452026,0.41331183910369873,1.0,0.91,0.001
483,0.3143768310546875,0.4131571054458618,1.0,0.91,0.001
484,0.3143714964389801,0.41434192657470703,1.0,0.91,0.001
485,0.31436726450920105,0.4140172600746155,1.0,0.91,0.001
486,0.31436166167259216,0.41367629170417786,1.0,0.91,0.001
487,0.31435737013816833,0.41385895013809204,1.0,0.91,0.001
488,0.31435292959213257,0.413457453250885,1.0,0.91,0.001
489,0.31434735655784607,0.41392526030540466,1.0,0.91,0.001
490,0.31434252858161926,0.4138534665107727,1.0,0.91,0.001
491,0.3143375515937805,0.41409194469451904,1.0,0.91,0.001
492,0.31433284282684326,0.4136219322681427,1.0,0.91,0.001
493,0.3143281638622284,0.41420939564704895,1.0,0.91,0.001
494,0.3143240213394165,0.4139169752597809,1.0,0.91,0.001
495,0.3143189549446106,0.4135724902153015,1.0,0.91,0.001
496,0.31431448459625244,0.41383087635040283,1.0,0.91,0.001
497,0.3143100440502167,0.4136175513267517,1.0,0.91,0.001
498,0.3143064081668854,0.41403988003730774,1.0,0.91,0.001
499,0.31430163979530334,0.414008229970932,1.0,0.91,0.001
500,0.31429725885391235,0.41374754905700684,1.0,0.91,0.001
501,0.31429266929626465,0.41392821073532104,1.0,0.91,0.001
502,0.31428879499435425,0.41386282444000244,1.0,0.91,0.001
503,0.31428414583206177,0.4132847189903259,1.0,0.91,0.001
504,0.3142796456813812,0.41370826959609985,1.0,0.91,0.001
505,0.31427523493766785,0.4140154719352722,1.0,0.91,0.001
506,0.31427109241485596,0.41380706429481506,1.0,0.91,0.001
507,0.31426650285720825,0.4140555262565613,1.0,0.91,0.001
508,0.3142628073692322,0.4137091338634491,1.0,0.91,0.001
509,0.31425824761390686,0.41402602195739746,1.0,0.91,0.001
510,0.3142547905445099,0.4131847321987152,1.0,0.91,0.001
511,0.3142499625682831,0.41387948393821716,1.0,0.91,0.001
512,0.3142453134059906,0.41437828540802,1.0,0.91,0.001
513,0.31424233317375183,0.4132722020149231,1.0,0.91,0.001
514,0.31423860788345337,0.41444671154022217,1.0,0.91,0.001
515,0.31423327326774597,0.4133729040622711,1.0,0.91,0.001
516,0.31422996520996094,0.4130980670452118,1.0,0.91,0.001
517,0.31422632932662964,0.4151335656642914,1.0,0.91,0.001
518,0.3142218291759491,0.4140983819961548,1.0,0.91,0.001
519,0.3142189681529999,0.41302764415740967,1.0,0.91,0.001
520,0.31421419978141785,0.4137885272502899,1.0,0.91,0.001
521,0.3142102360725403,0.4144464433193207,1.0,0.91,0.001
522,0.31420624256134033,0.41365987062454224,1.0,0.91,0.001
523,0.3142026364803314,0.41370150446891785,1.0,0.91,0.001
524,0.3141980469226837,0.41366252303123474,1.0,0.91,0.001
525,0.31419429183006287,0.41389012336730957,1.0,0.91,0.001
526,0.31419074535369873,0.4139159023761749,1.0,0.91,0.001
527,0.3141865134239197,0.4141036570072174,1.0,0.91,0.001
528,0.3141832649707794,0.4135359227657318,1.0,0.91,0.001
529,0.3141797184944153,0.4134584367275238,1.0,0.91,0.001
530,0.3141762614250183,0.41477978229522705,1.0,0.91,0.001
531,0.3141727149486542,0.4134947955608368,1.0,0.91,0.001
532,0.3141688406467438,0.41344085335731506,1.0,0.91,0.001
533,0.31416594982147217,0.4147692918777466,1.0,0.91,0.001
534,0.31416231393814087,0.4141223430633545,1.0,0.91,0.001
535,0.31415846943855286,0.41353127360343933,1.0,0.91,0.001
536,0.3141559958457947,0.414602667093277,1.0,0.91,0.001
537,0.3141520619392395,0.4132281541824341,1.0,0.91,0.001
538,0.31414803862571716,0.4138772487640381,1.0,0.91,0.001
539,0.31414467096328735,0.41427433490753174,1.0,0.91,0.001
540,0.3141416311264038,0.4138146936893463,1.0,0.91,0.001
541,0.3141380548477173,0.4131932556629181,1.0,0.91,0.001
542,0.31413471698760986,0.41515347361564636,1.0,0.91,0.001
543,0.31413084268569946,0.41431376338005066,1.0,0.91,0.001
544,0.3141278326511383,0.412759393453598,1.0,0.91,0.001
545,0.3141247034072876,0.4139634072780609,1.0,0.91,0.001
546,0.31412065029144287,0.4148809313774109,1.0,0.91,0.001
547,0.31411808729171753,0.4135795533657074,1.0,0.91,0.001
548,0.31411439180374146,0.414498895406723,1.0,0.91,0.001
549,0.31411105394363403,0.4137900471687317,1.0,0.91,0.001
550,0.31410807371139526,0.41344285011291504,1.0,0.91,0.001
551,0.31410473585128784,0.414607435464859,1.0,0.91,0.001
552,0.3141017556190491,0.4145871698856354,1.0,0.91,0.001
553,0.31409919261932373,0.4129851162433624,1.0,0.91,0.001
554,0.31409579515457153,0.41397926211357117,1.0,0.91,0.001
555,0.314092755317688,0.4150140881538391,1.0,0.91,0.001
556,0.31409046053886414,0.4132619798183441,1.0,0.91,0.001
557,0.31408625841140747,0.41369423270225525,1.0,0.91,0.001
558,0.3140832185745239,0.414571613073349,1.0,0.91,0.001
559,0.31408044695854187,0.4140453040599823,1.0,0.91,0.001
560,0.3140764534473419,0.41357094049453735,1.0,0.91,0.001
561,0.3140745759010315,0.41493767499923706,1.0,0.91,0.001
562,0.3140709102153778,0.41324013471603394,1.0,0.91,0.001
563,0.3140672445297241,0.4134042263031006,1.0,0.91,0.001
564,0.3140648901462555,0.4149111211299896,1.0,0.91,0.001
565,0.31406113505363464,0.4138203561306,1.0,0.91,0.001
566,0.31405875086784363,0.4126185178756714,1.0,0.91,0.001
567,0.3140566945075989,0.4148426353931427,1.0,0.91,0.001
568,0.31405219435691833,0.4152553975582123,1.0,0.91,0.001
569,0.31405097246170044,0.4126473367214203,1.0,0.91,0.001
570,0.3140471577644348,0.41378670930862427,1.0,0.91,0.001
571,0.3140438199043274,0.414821058511734,1.0,0.91,0.001
572,0.3140411674976349,0.41321223974227905,1.0,0.91,0.001
573,0.31403759121894836,0.4138389229774475,1.0,0.91,0.001
574,0.31403517723083496,0.41440415382385254,1.0,0.91,0.001
575,0.3140321373939514,0.4131264090538025,1.0,0.91,0.001
576,0.31402909755706787,0.4138341248035431,1.0,0.91,0.001
577,0.3140265643596649,0.4149826467037201,1.0,0.91,0.001
578,0.3140239119529724,0.4133347272872925,1.0,0.91,0.001
579,0.3140207529067993,0.41309019923210144,1.0,0.91,0.001
580,0.3140184283256531,0.41455212235450745,1.0,0.91,0.001
581,0.31401535868644714,0.4141876995563507,1.0,0.91,0.001
582,0.31401267647743225,0.4130067825317383,1.0,0.91,0.001
583,0.3140101432800293,0.41375088691711426,1.0,0.91,0.001
584,0.31400662660598755,0.4140213131904602,1.0,0.91,0.001
585,0.31400373578071594,0.4135081171989441,1.0,0.91,0.001
586,0.3140013515949249,0.414921373128891,1.0,0.91,0.001
587,0.3139986991882324,0.4132501184940338,1.0,0.91,0.001
588,0.31399571895599365,0.4131454527378082,1.0,0.91,0.001
589,0.31399306654930115,0.41448357701301575,1.0,0.91,0.001
590,0.3139897882938385,0.41428038477897644,1.0,0.91,0.001
591,0.31398728489875793,0.4132390320301056,1.0,0.91,0.001
592,0.31398457288742065,0.4130377471446991,1.0,0.91,0.001
593,0.31398192048072815,0.41421809792518616,1.0,0.91,0.001
594,0.3139793574810028,0.4139915406703949,1.0,0.91,0.001
595,0.313976526260376,0.4136238098144531,1.0,0.91,0.001
596,0.31397444009780884,0.4135085344314575,1.0,0.91,0.001
597,0.31397145986557007,0.41325515508651733,1.0,0.91,0.001
598,0.3139688968658447,0.414376437664032,1.0,0.91,0.001
599,0.3139660358428955,0.4142959713935852,1.0,0.91,0.001
600,0.3139634430408478,0.41279250383377075,1.0,0.91,0.001
601,0.31396105885505676,0.41327112913131714,1.0,0.91,0.001
602,0.31395888328552246,0.41470587253570557,1.0,0.91,0.001
603,0.31395602226257324,0.4135362207889557,1.0,0.91,0.001
604,0.3139539062976837,0.41343849897384644,1.0,0.91,0.001
605,0.3139512538909912,0.4136863946914673,1.0,0.91,0.001
606,0.3139488697052002,0.41308578848838806,1.0,0.91,0.001
607,0.31394675374031067,0.414519339799881,1.0,0.91,0.001
608,0.3139439523220062,0.4140021502971649,1.0,0.91,0.001
609,0.3139413595199585,0.4131556451320648,1.0,0.91,0.001
610,0.3139389753341675,0.41379737854003906,1.0,0.91,0.001
611,0.3139370381832123,0.41436949372291565,1.0,0.91,0.001
612,0.31393441557884216,0.4132566452026367,1.0,0.91,0.001
613,0.313931941986084,0.4133177697658539,1.0,0.91,0.001
614,0.3139297664165497,0.4144304692745209,1.0,0.91,0.001
615,0.31392720341682434,0.41369393467903137,1.0,0.91,0.001
616,0.31392496824264526,0.4135115444660187,1.0,0.91,0.001
617,0.3139228820800781,0.41396164894104004,1.0,0.91,0.001
618,0.3139205873012543,0.41330763697624207,1.0,0.91,0.001
619,0.31391841173171997,0.4138239324092865,1.0,0.91,0.001
620,0.3139161765575409,0.4134543538093567,1.0,0.91,0.001
621,0.3139137923717499,0.41364017128944397,1.0,0.91,0.001
622,0.313911497592926,0.41354143619537354,1.0,0.91,0.001
623,0.3139096200466156,0.41385409235954285,1.0,0.91,0.001
624,0.31390702724456787,0.4136993885040283,1.0,0.91,0.001
625,0.3139050006866455,0.4133354425430298,1.0,0.91,0.001
626,0.3139026165008545,0.4137994647026062,1.0,0.91,0.001
627,0.313900351524353,0.41369521617889404,1.0,0.91,0.001
628,0.3138982653617859,0.41363847255706787,1.0,0.91,0.001
629,0.31389641761779785,0.41341304779052734,1.0,0.91,0.001
630,0.31389445066452026,0.4136216640472412,1.0,0.91,0.001
631,0.31389254331588745,0.4138302505016327,1.0,0.91,0.001
632,0.31389060616493225,0.4137996435165405,1.0,0.91,0.001
633,0.3138882517814636,0.4132208526134491,1.0,0.91,0.001
634,0.31388604640960693,0.4142265021800995,1.0,0.91,0.001
635,0.31388401985168457,0.41353359818458557,1.0,0.91,0.001
636,0.3138817548751831,0.4132581651210785,1.0,0.91,0.001
637,0.31387993693351746,0.4137829840183258,1.0,0.91,0.001
638,0.31387796998023987,0.41347789764404297,1.0,0.91,0.001
639,0.31387564539909363,0.4135616719722748,1.0,0.91,0.001
640,0.31387367844581604,0.413798987865448,1.0,0.91,0.001
641,0.3138715624809265,0.41315600275993347,1.0,0.91,0.001
642,0.313869833946228,0.41349107027053833,1.0,0.91,0.001
643,0.3138679563999176,0.41394612193107605,1.0,0.91,0.001
644,0.31386592984199524,0.4128698706626892,1.0,0.91,0.001
645,0.31386369466781616,0.4133709669113159,1.0,0.91,0.001
646,0.3138618767261505,0.4144119620323181,1.0,0.91,0.001
647,0.31385987997055054,0.4129084050655365,1.0,0.91,0.001
648,0.31385791301727295,0.41343429684638977,1.0,0.91,0.001
649,0.31385594606399536,0.4135875999927521,1.0,0.91,0.001
650,0.3138542175292969,0.4141300320625305,1.0,0.91,0.001
651,0.31385233998298645,0.41317710280418396,1.0,0.91,0.001
652,0.3138503134250641,0.4123104512691498,1.0,0.91,0.001
653,0.31384825706481934,0.41379353404045105,1.0,0.91,0.001
654,0.31384608149528503,0.414004921913147,1.0,0.91,0.001
655,0.31384408473968506,0.41354629397392273,1.0,0.91,0.001
656,0.31384241580963135,0.4129433035850525,1.0,0.91,0.001
657,0.3138408362865448,0.4136217534542084,1.0,0.91,0.001
658,0.31383854150772095,0.4138948917388916,1.0,0.91,0.001
659,0.3138367533683777,0.4133013188838959,1.0,0.91,0.001
660,0.31383469700813293,0.4125480651855469,1.0,0.91,0.001
661,0.31383299827575684,0.41356804966926575,1.0,0.91,0.001
662,0.3138312101364136,0.4136764109134674,1.0,0.91,0.001
663,0.31382912397384644,0.4133540987968445,1.0,0.91,0.001
664,0.31382763385772705,0.4130188226699829,1.0,0.91,0.001
665,0.313825786113739,0.41298583149909973,1.0,0.91,0.001
666,0.3138241171836853,0.41384953260421753,1.0,0.91,0.001
667,0.3138224482536316,0.41300490498542786,1.0,0.91,0.001
668,0.31382080912590027,0.41333961486816406,1.0,0.91,0.001
669,0.3138187527656555,0.41259765625,1.0,0.91,0.001
670,0.3138170540332794,0.41388317942619324,1.0,0.91,0.001
671,0.31381547451019287,0.41354605555534363,1.0,0.91,0.001
672,0.3138134181499481,0.41272440552711487,1.0,0.91,0.001
673,0.3138117492198944,0.4129160940647125,1.0,0.91,0.001
674,0.31380969285964966,0.4141674339771271,1.0,0.91,0.001
675,0.3138079047203064,0.41302233934402466,1.0,0.91,0.001
676,0.31380602717399597,0.4126637279987335,1.0,0.91,0.001
677,0.31380438804626465,0.41290390491485596,1.0,0.91,0.001
678,0.3138027787208557,0.4135822355747223,1.0,0.91,0.001
679,0.3138008713722229,0.4135059416294098,1.0,0.91,0.001
680,0.31379926204681396,0.4129565358161926,1.0,0.91,0.001
681,0.3137977719306946,0.41293251514434814,1.0,0.91,0.001
682,0.3137962222099304,0.4127805829048157,1.0,0.91,0.001
683,0.31379443407058716,0.4141361117362976,1.0,0.91,0.001
684,0.3137925863265991,0.41332682967185974,1.0,0.91,0.001
685,0.31379106640815735,0.41215798258781433,1.0,0.91,0.001
686,0.3137892484664917,0.41229048371315,1.0,0.91,0.001
687,0.3137880563735962,0.4145834743976593,1.0,0.91,0.001
688,0.31378641724586487,0.41381728649139404,1.0,0.91,0.001
689,0.31378471851348877,0.41219598054885864,1.0,0.91,0.001
690,0.3137832283973694,0.41244521737098694,1.0,0.91,0.001
691,0.3137817084789276,0.4135577082633972,1.0,0.91,0.001
692,0.3137800693511963,0.41370755434036255,1.0,0.91,0.001
693,0.3137785792350769,0.4132785499095917,1.0,0.91,0.001
694,0.3137768507003784,0.41227877140045166,1.0,0.91,0.001
695,0.3137751817703247,0.41261574625968933,1.0,0.91,0.001
696,0.3137738108634949,0.4145488440990448,1.0,0.91,0.001
697,0.313772052526474,0.4130222797393799,1.0,0.91,0.001
698,0.3137703239917755,0.41246601939201355,1.0,0.91,0.001
699,0.3137686848640442,0.4128607511520386,1.0,0.91,0.001
700,0.3137669265270233,0.41308334469795227,1.0,0.91,0.001
701,0.31376543641090393,0.413529634475708,1.0,0.91,0.001
702,0.31376391649246216,0.4127170443534851,1.0,0.91,0.001
703,0.3137626349925995,0.41281837224960327,1.0,0.91,0.001
704,0.3137611150741577,0.4135662317276001,1.0,0.91,0.001
705,0.3137596845626831,0.4133074879646301,1.0,0.91,0.001
706,0.31375813484191895,0.41247260570526123,1.0,0.91,0.001
707,0.31375670433044434,0.4134303331375122,1.0,0.91,0.001
708,0.31375494599342346,0.4128956198692322,1.0,0.91,0.001
709,0.31375348567962646,0.41299495100975037,1.0,0.91,0.001
710,0.31375208497047424,0.4133750796318054,1.0,0.91,0.001
711,0.31375065445899963,0.41251513361930847,1.0,0.91,0.001
712,0.3137492835521698,0.41306376457214355,1.0,0.91,0.001
713,0.313747763633728,0.4133405387401581,1.0,0.91,0.001
714,0.31374630331993103,0.4125109016895294,1.0,0.91,0.001
715,0.3137446641921997,0.4125646948814392,1.0,0.91,0.001
716,0.31374359130859375,0.41303372383117676,1.0,0.91,0.001
717,0.31374216079711914,0.4130091071128845,1.0,0.91,0.001
718,0.3137407898902893,0.41279515624046326,1.0,0.91,0.001
719,0.31373944878578186,0.4131893813610077,1.0,0.91,0.001
720,0.3137378692626953,0.41318050026893616,1.0,0.91,0.001
721,0.31373628973960876,0.4123867154121399,1.0,0.91,0.001
722,0.31373491883277893,0.41349419951438904,1.0,0.91,0.001
723,0.3137335777282715,0.41293999552726746,1.0,0.91,0.001
724,0.3137320280075073,0.41256043314933777,1.0,0.91,0.001
725,0.3137308359146118,0.41329678893089294,1.0,0.91,0.001
726,0.3137294054031372,0.41286662220954895,1.0,0.91,0.001
727,0.3137282133102417,0.4128243327140808,1.0,0.91,0.001
728,0.3137267827987671,0.41326382756233215,1.0,0.91,0.001
729,0.3137255907058716,0.41293099522590637,1.0,0.91,0.001
730,0.3137241303920746,0.4129106104373932,1.0,0.91,0.001
731,0.3137226998806,0.4131486415863037,1.0,0.91,0.001
732,0.3137211203575134,0.4126744866371155,1.0,0.91,0.001
733,0.3137199282646179,0.4129875600337982,1.0,0.91,0.001
734,0.3137187361717224,0.4124978184700012,1.0,0.91,0.001
735,0.31371772289276123,0.41317036747932434,1.0,0.91,0.001
736,0.3137161135673523,0.412903755903244,1.0,0.91,0.001
737,0.3137148916721344,0.41266724467277527,1.0,0.91,0.001
738,0.3137136697769165,0.41353875398635864,1.0,0.91,0.001
739,0.31371238827705383,0.41258499026298523,1.0,0.91,0.001
740,0.31371092796325684,0.41265320777893066,1.0,0.91,0.001
741,0.313709557056427,0.4134320020675659,1.0,0.91,0.001
742,0.31370821595191956,0.4130679666996002,1.0,0.91,0.001
743,0.31370672583580017,0.41272926330566406,1.0,0.91,0.001
744,0.31370529532432556,0.4133853018283844,1.0,0.91,0.001
745,0.3137041926383972,0.41289761662483215,1.0,0.91,0.001
746,0.3137030005455017,0.41241833567619324,1.0,0.91,0.001
747,0.3137017488479614,0.41322335600852966,1.0,0.91,0.001
748,0.313700407743454,0.4125036299228668,1.0,0.91,0.001
749,0.31369921565055847,0.4137526750564575,1.0,0.91,0.001
750,0.31369784474372864,0.4128299951553345,1.0,0.91,0.001
751,0.31369689106941223,0.41224002838134766,1.0,0.91,0.001
752,0.31369549036026,0.41380199790000916,1.0,0.91,0.001
753,0.3136940896511078,0.41390204429626465,1.0,0.91,0.001
754,0.31369298696517944,0.41250014305114746,1.0,0.91,0.001
755,0.31369200348854065,0.4120844304561615,1.0,0.91,0.001
756,0.3136904835700989,0.4132329225540161,1.0,0.91,0.001
757,0.31368929147720337,0.4132542312145233,1.0,0.91,0.001
758,0.31368815898895264,0.413002610206604,1.0,0.91,0.001
759,0.3136870265007019,0.41279587149620056,1.0,0.91,0.001
760,0.313685804605484,0.4128890633583069,1.0,0.91,0.001
761,0.31368449330329895,0.4127487242221832,1.0,0.91,0.001
762,0.31368356943130493,0.4134061336517334,1.0,0.91,0.001
763,0.3136822283267975,0.4130224585533142,1.0,0.91,0.001
764,0.31368106603622437,0.412080854177475,1.0,0.91,0.001
765,0.3136800527572632,0.4127250611782074,1.0,0.91,0.001
766,0.3136786222457886,0.4134342670440674,1.0,0.91,0.001
767,0.313677579164505,0.41302844882011414,1.0,0.91,0.001
768,0.3136764466762543,0.4126102030277252,1.0,0.91,0.001
769,0.3136754035949707,0.4127502739429474,1.0,0.91,0.001
770,0.31367436051368713,0.4128243923187256,1.0,0.91,0.001
771,0.31367310881614685,0.4133472740650177,1.0,0.91,0.001
772,0.3136717677116394,0.4128431975841522,1.0,0.91,0.001
773,0.31367066502571106,0.41200774908065796,1.0,0.91,0.001
774,0.31366971135139465,0.41327786445617676,1.0,0.91,0.001
775,0.3136686384677887,0.41349300742149353,1.0,0.91,0.001
776,0.31366726756095886,0.4131734073162079,1.0,0.91,0.001
777,0.3136662244796753,0.4122983515262604,1.0,0.91,0.001
778,0.3136652708053589,0.41235411167144775,1.0,0.91,0.001
779,0.313664048910141,0.41342049837112427,1.0,0.91,0.001
780,0.3136630058288574,0.4142742455005646,1.0,0.91,0.001
781,0.3136621415615082,0.4120933413505554,1.0,0.91,0.001
782,0.31366077065467834,0.41219380497932434,1.0,0.91,0.001
783,0.3136596381664276,0.4131338894367218,1.0,0.91,0.001
784,0.31365856528282166,0.4136420488357544,1.0,0.91,0.001
785,0.3136575222015381,0.41314712166786194,1.0,0.91,0.001
786,0.3136565685272217,0.41202616691589355,1.0,0.91,0.001
787,0.31365540623664856,0.4119517505168915,1.0,0.91,0.001
788,0.31365424394607544,0.41382643580436707,1.0,0.91,0.001
789,0.3136531710624695,0.4142506718635559,1.0,0.91,0.001
790,0.3136524260044098,0.41225501894950867,1.0,0.91,0.001
791,0.3136509954929352,0.4117761254310608,1.0,0.91,0.001
792,0.31364989280700684,0.4135403037071228,1.0,0.91,0.001
793,0.31364870071411133,0.41356754302978516,1.0,0.91,0.001
794,0.3136477470397949,0.41226616501808167,1.0,0.91,0.001
795,0.3136465549468994,0.41234806180000305,1.0,0.91,0.001
796,0.3136453926563263,0.4126588702201843,1.0,0.91,0.001
797,0.31364449858665466,0.4127345383167267,1.0,0.91,0.001
798,0.31364336609840393,0.41279757022857666,1.0,0.91,0.001
799,0.31364262104034424,0.4136066734790802,1.0,0.91,0.001
800,0.31364133954048157,0.4123307466506958,1.0,0.91,0.001
801,0.313640296459198,0.4116837680339813,1.0,0.91,0.001
802,0.3136390745639801,0.4128546118736267,1.0,0.91,0.001
803,0.313638299703598,0.41390690207481384,1.0,0.91,0.001
804,0.3136371672153473,0.4122229814529419,1.0,0.91,0.001
805,0.3136362135410309,0.4124588370323181,1.0,0.91,0.001
806,0.31363537907600403,0.4130776524543762,1.0,0.91,0.001
807,0.3136342167854309,0.413102388381958,1.0,0.91,0.001
808,0.313633531332016,0.4119059443473816,1.0,0.91,0.001
809,0.31363242864608765,0.412845641374588,1.0,0.91,0.001
810,0.31363117694854736,0.41329020261764526,1.0,0.91,0.001
811,0.3136304020881653,0.41177991032600403,1.0,0.91,0.001
812,0.3136293888092041,0.41218945384025574,1.0,0.91,0.001
813,0.31362855434417725,0.41338878870010376,1.0,0.91,0.001
814,0.3136274218559265,0.41318753361701965,1.0,0.91,0.001
815,0.3136264681816101,0.4121645987033844,1.0,0.91,0.001
816,0.313625693321228,0.41244372725486755,1.0,0.91,0.001
817,0.3136247396469116,0.41259315609931946,1.0,0.91,0.001
818,0.3136237859725952,0.4122800827026367,1.0,0.91,0.001
819,0.3136228322982788,0.4125147759914398,1.0,0.91,0.001
820,0.3136218190193176,0.412675678730011,1.0,0.91,0.001
821,0.31362101435661316,0.4123595058917999,1.0,0.91,0.001
822,0.31362026929855347,0.4123687446117401,1.0,0.91,0.001
823,0.31361910700798035,0.41312849521636963,1.0,0.91,0.001
824,0.3136182129383087,0.41256996989250183,1.0,0.91,0.001
825,0.3136172294616699,0.4124809503555298,1.0,0.91,0.001
826,0.3136163055896759,0.4123430550098419,1.0,0.91,0.001
827,0.3136152923107147,0.4131788909435272,1.0,0.91,0.001
828,0.31361448764801025,0.4130061864852905,1.0,0.91,0.001
829,0.3136136531829834,0.411559134721756,1.0,0.91,0.001
830,0.31361252069473267,0.41251900792121887,1.0,0.91,0.001
831,0.3136119246482849,0.41337722539901733,1.0,0.91,0.001
832,0.3136107921600342,0.4125123918056488,1.0,0.91,0.001
833,0.313609778881073,0.41176536679267883,1.0,0.91,0.001
834,0.31360888481140137,0.4130113124847412,1.0,0.91,0.001
835,0.3136079013347626,0.41319340467453003,1.0,0.91,0.001
836,0.31360724568367004,0.41207581758499146,1.0,0.91,0.001
837,0.313606321811676,0.41228705644607544,1.0,0.91,0.001
838,0.3136054277420044,0.41290751099586487,1.0,0.91,0.001
839,0.313604474067688,0.4128095507621765,1.0,0.91,0.001
840,0.3136036992073059,0.41249537467956543,1.0,0.91,0.001
841,0.31360289454460144,0.4125831127166748,1.0,0.91,0.001
842,0.31360185146331787,0.41247233748435974,1.0,0.91,0.001
843,0.31360098719596863,0.4124472737312317,1.0,0.91,0.001
844,0.31360018253326416,0.41280654072761536,1.0,0.91,0.001
845,0.31359946727752686,0.4130003750324249,1.0,0.91,0.001
846,0.31359851360321045,0.4120039641857147,1.0,0.91,0.001
847,0.31359755992889404,0.41225823760032654,1.0,0.91,0.001
848,0.3135966956615448,0.4128643870353699,1.0,0.91,0.001
849,0.3135960102081299,0.4128873348236084,1.0,0.91,0.001
850,0.3135952651500702,0.4119640290737152,1.0,0.91,0.001
851,0.3135944902896881,0.4123762249946594,1.0,0.91,0.001
852,0.3135935068130493,0.4128095209598541,1.0,0.91,0.001
853,0.31359273195266724,0.41283291578292847,1.0,0.91,0.001
854,0.31359195709228516,0.41218194365501404,1.0,0.91,0.001
855,0.31359124183654785,0.4120601415634155,1.0,0.91,0.001
856,0.31359028816223145,0.41244396567344666,1.0,0.91,0.001
857,0.3135896325111389,0.41378384828567505,1.0,0.91,0.001
858,0.31358885765075684,0.41191405057907104,1.0,0.91,0.001
859,0.3135876953601837,0.4118245244026184,1.0,0.91,0.001
860,0.3135870695114136,0.412861704826355,1.0,0.91,0.001
861,0.31358611583709717,0.4124310314655304,1.0,0.91,0.001
862,0.31358519196510315,0.4122123718261719,1.0,0.91,0.001
863,0.3135843873023987,0.4125826954841614,1.0,0.91,0.001
864,0.31358373165130615,0.41245225071907043,1.0,0.91,0.001
865,0.3135828971862793,0.4118485748767853,1.0,0.91,0.001
866,0.3135819137096405,0.41251885890960693,1.0,0.91,0.001
867,0.3135811984539032,0.41271594166755676,1.0,0.91,0.001
868,0.3135804831981659,0.4119300842285156,1.0,0.91,0.001
869,0.3135796785354614,0.41187867522239685,1.0,0.91,0.001
870,0.31357884407043457,0.4124148190021515,1.0,0.91,0.001
871,0.31357789039611816,0.4127945005893707,1.0,0.91,0.001
872,0.313577264547348,0.4123865067958832,1.0,0.91,0.001
873,0.31357651948928833,0.4120636284351349,1.0,0.91,0.001
874,0.31357574462890625,0.41215193271636963,1.0,0.91,0.001
875,0.3135748505592346,0.41228440403938293,1.0,0.91,0.001
876,0.31357407569885254,0.4125221371650696,1.0,0.91,0.001
877,0.31357342004776,0.41271018981933594,1.0,0.91,0.001
878,0.3135727643966675,0.41138994693756104,1.0,0.91,0.001
879,0.3135720491409302,0.4124998450279236,1.0,0.91,0.001
880,0.3135709762573242,0.41267529129981995,1.0,0.91,0.001
881,0.3135702610015869,0.4128204584121704,1.0,0.91,0.001
882,0.3135695159435272,0.41205674409866333,1.0,0.91,0.001
883,0.31356877088546753,0.41161808371543884,1.0,0.91,0.001
884,0.31356796622276306,0.4122922122478485,1.0,0.91,0.001
885,0.31356722116470337,0.4121491312980652,1.0,0.91,0.001
886,0.31356650590896606,0.4127662777900696,1.0,0.91,0.001
887,0.31356582045555115,0.41248074173927307,1.0,0.91,0.001
888,0.31356504559516907,0.411722868680954,1.0,0.91,0.001
889,0.31356433033943176,0.41244399547576904,1.0,0.91,0.001
890,0.3135635256767273,0.4125521779060364,1.0,0.91,0.001
891,0.3135630190372467,0.41235217452049255,1.0,0.91,0.001
892,0.31356221437454224,0.41260266304016113,1.0,0.91,0.001
893,0.3135615289211273,0.4119459390640259,1.0,0.91,0.001
894,0.31356075406074524,0.41178759932518005,1.0,0.91,0.001
895,0.3135599195957184,0.4122854173183441,1.0,0.91,0.001
896,0.3135591745376587,0.41244298219680786,1.0,0.91,0.001
897,0.3135584890842438,0.4121594727039337,1.0,0.91,0.001
898,0.31355753540992737,0.412220299243927,1.0,0.91,0.001
899,0.3135569393634796,0.41259872913360596,1.0,0.91,0.001
900,0.3135562241077423,0.41152989864349365,1.0,0.91,0.001
901,0.31355559825897217,0.4122626483440399,1.0,0.91,0.001
902,0.31355488300323486,0.412704735994339,1.0,0.91,0.001
903,0.3135542869567871,0.41213172674179077,1.0,0.91,0.001
904,0.3135535717010498,0.4118419587612152,1.0,0.91,0.001
905,0.31355273723602295,0.41214388608932495,1.0,0.91,0.001
906,0.31355199217796326,0.41199469566345215,1.0,0.91,0.001
907,0.31355127692222595,0.41244155168533325,1.0,0.91,0.001
908,0.3135504722595215,0.41197213530540466,1.0,0.91,0.001
909,0.3135499954223633,0.41178038716316223,1.0,0.91,0.001
910,0.3135492503643036,0.4120931923389435,1.0,0.91,0.001
911,0.31354859471321106,0.41296812891960144,1.0,0.91,0.001
912,0.31354790925979614,0.4120594263076782,1.0,0.91,0.001
913,0.3135472536087036,0.4116116762161255,1.0,0.91,0.001
914,0.31354665756225586,0.4121776521205902,1.0,0.91,0.001
915,0.3135461211204529,0.41261205077171326,1.0,0.91,0.001
916,0.3135453462600708,0.4123559296131134,1.0,0.91,0.001
917,0.31354472041130066,0.4118776321411133,1.0,0.91,0.001
918,0.3135441541671753,0.411843478679657,1.0,0.91,0.001
919,0.31354349851608276,0.4121915400028229,1.0,0.91,0.001
920,0.31354281306266785,0.41287747025489807,1.0,0.91,0.001
921,0.3135422468185425,0.4115948975086212,1.0,0.91,0.001
922,0.313541442155838,0.41178959608078003,1.0,0.91,0.001
923,0.31354084610939026,0.41234973073005676,1.0,0.91,0.001
924,0.3135402202606201,0.41278979182243347,1.0,0.91,0.001
925,0.3135395348072052,0.41192662715911865,1.0,0.91,0.001
926,0.3135388493537903,0.412220299243927,1.0,0.91,0.001
927,0.3135380744934082,0.4119408130645752,1.0,0.91,0.001
928,0.3135373890399933,0.41207924485206604,1.0,0.91,0.001
929,0.31353673338890076,0.4123572111129761,1.0,0.91,0.001
930,0.3135361075401306,0.4124179482460022,1.0,0.91,0.001
931,0.31353557109832764,0.4124479293823242,1.0,0.91,0.001
932,0.31353509426116943,0.4118683636188507,1.0,0.91,0.001
933,0.3135344684123993,0.4120786786079407,1.0,0.91,0.001
934,0.31353381276130676,0.41227567195892334,1.0,0.91,0.001
935,0.313533216714859,0.41233617067337036,1.0,0.91,0.001
936,0.31353265047073364,0.41218796372413635,1.0,0.91,0.001
937,0.31353214383125305,0.41161048412323,1.0,0.91,0.001
938,0.3135314881801605,0.41221103072166443,1.0,0.91,0.001
939,0.313530832529068,0.4126710891723633,1.0,0.91,0.001
940,0.31352999806404114,0.4122263789176941,1.0,0.91,0.001
941,0.31352943181991577,0.4122847318649292,1.0,0.91,0.001
942,0.31352874636650085,0.4122791290283203,1.0,0.91,0.001
943,0.31352823972702026,0.412107914686203,1.0,0.91,0.001
944,0.3135276436805725,0.4118834435939789,1.0,0.91,0.001
945,0.31352701783180237,0.41193920373916626,1.0,0.91,0.001
946,0.3135262727737427,0.41268134117126465,1.0,0.91,0.001
947,0.313525915145874,0.41194987297058105,1.0,0.91,0.001
948,0.3135252892971039,0.4118705093860626,1.0,0.91,0.001
949,0.3135247528553009,0.41261833906173706,1.0,0.91,0.001
950,0.31352415680885315,0.4118545949459076,1.0,0.91,0.001
951,0.31352362036705017,0.4117271900177002,1.0,0.91,0.001
952,0.31352320313453674,0.4121859669685364,1.0,0.91,0.001
953,0.31352242827415466,0.41239386796951294,1.0,0.91,0.001
954,0.3135218322277069,0.4118883013725281,1.0,0.91,0.001
955,0.3135211169719696,0.411659836769104,1.0,0.91,0.001
956,0.3135206699371338,0.41215503215789795,1.0,0.91,0.001
957,0.3135199546813965,0.412931352853775,1.0,0.91,0.001
958,0.31351953744888306,0.41165798902511597,1.0,0.91,0.001
959,0.3135189116001129,0.4119913876056671,1.0,0.91,0.001
960,0.3135184645652771,0.4121277332305908,1.0,0.91,0.001
961,0.31351786851882935,0.4117248058319092,1.0,0.91,0.001
962,0.313517302274704,0.41305938363075256,1.0,0.91,0.001
963,0.313516765832901,0.41200175881385803,1.0,0.91,0.001
964,0.31351619958877563,0.41131746768951416,1.0,0.91,0.001
965,0.3135155439376831,0.4125441014766693,1.0,0.91,0.001
966,0.3135150074958801,0.41226378083229065,1.0,0.91,0.001
967,0.3135143518447876,0.4119094908237457,1.0,0.91,0.001
968,0.313513845205307,0.4118940830230713,1.0,0.91,0.001
969,0.31351330876350403,0.41234806180000305,1.0,0.91,0.001
970,0.31351277232170105,0.412833034992218,1.0,0.91,0.001
971,0.3135122060775757,0.4118725061416626,1.0,0.91,0.001
972,0.3135117292404175,0.4114849865436554,1.0,0.91,0.001
973,0.31351107358932495,0.4119514524936676,1.0,0.91,0.001
974,0.313510537147522,0.41249075531959534,1.0,0.91,0.001
975,0.31351006031036377,0.4120779037475586,1.0,0.91,0.001
976,0.3135095536708832,0.4122026860713959,1.0,0.91,0.001
977,0.313509076833725,0.4125119745731354,1.0,0.91,0.001
978,0.313508540391922,0.41177451610565186,1.0,0.91,0.001
979,0.31350812315940857,0.41146254539489746,1.0,0.91,0.001
980,0.3135074973106384,0.41273272037506104,1.0,0.91,0.001
981,0.3135069012641907,0.4128747284412384,1.0,0.91,0.001
982,0.31350648403167725,0.41178590059280396,1.0,0.91,0.001
983,0.3135058879852295,0.41123539209365845,1.0,0.91,0.001
984,0.31350529193878174,0.4121682047843933,1.0,0.91,0.001
985,0.3135046660900116,0.41278353333473206,1.0,0.91,0.001
986,0.3135041892528534,0.41257762908935547,1.0,0.91,0.001
987,0.31350380182266235,0.41135987639427185,1.0,0.91,0.001
988,0.3135031461715698,0.41156479716300964,1.0,0.91,0.001
989,0.31350263953208923,0.41272857785224915,1.0,0.91,0.001
990,0.3135019540786743,0.41273364424705505,1.0,0.91,0.001
991,0.3135015666484833,0.4117553234100342,1.0,0.91,0.001
992,0.3135010302066803,0.4116365909576416,1.0,0.91,0.001
993,0.31350043416023254,0.41179144382476807,1.0,0.91,0.001
994,0.3135001063346863,0.41234341263771057,1.0,0.91,0.001
995,0.31349942088127136,0.4124603569507599,1.0,0.91,0.001
996,0.3134990632534027,0.41255566477775574,1.0,0.91,0.001
997,0.3134986460208893,0.41141632199287415,1.0,0.91,0.001
998,0.3134981393814087,0.41170090436935425,1.0,0.91,0.001
999,0.3134976625442505,0.4130266606807709,1.0,0.91,0.001
1000,0.3134971559047699,0.41226866841316223,1.0,0.91,0.001
1001,0.31349676847457886,0.4113961160182953,1.0,0.91,0.001
1002,0.3134962022304535,0.4122808575630188,1.0,0.91,0.001
1003,0.3134957551956177,0.4126647114753723,1.0,0.91,0.001
1004,0.31349536776542664,0.41193604469299316,1.0,0.91,0.001
1005,0.3134947419166565,0.41222208738327026,1.0,0.91,0.001
1006,0.313494473695755,0.4119942784309387,1.0,0.91,0.001
1007,0.3134936988353729,0.4119983911514282,1.0,0.91,0.001
1008,0.3134933412075043,0.4120313227176666,1.0,0.91,0.001
1009,0.31349286437034607,0.41229256987571716,1.0,0.91,0.001
1010,0.3134922981262207,0.4119149148464203,1.0,0.91,0.001
1011,0.31349170207977295,0.41243064403533936,1.0,0.91,0.001
1012,0.3134913146495819,0.4117528200149536,1.0,0.91,0.001
1013,0.31349077820777893,0.41194209456443787,1.0,0.91,0.001
1014,0.3134903609752655,0.4123193621635437,1.0,0.91,0.001
1015,0.3134898543357849,0.4120352864265442,1.0,0.91,0.001
1016,0.31348946690559387,0.4119899868965149,1.0,0.91,0.001
1017,0.31348899006843567,0.41227054595947266,1.0,0.91,0.001
1018,0.3134884834289551,0.41176822781562805,1.0,0.91,0.001
1019,0.3134879171848297,0.4117201566696167,1.0,0.91,0.001
1020,0.3134874105453491,0.4126572012901306,1.0,0.91,0.001
1021,0.31348711252212524,0.412212610244751,1.0,0.91,0.001
1022,0.3134865164756775,0.41178977489471436,1.0,0.91,0.001
1023,0.3134860098361969,0.41209256649017334,1.0,0.91,0.001
1024,0.31348565220832825,0.4119777977466583,1.0,0.91,0.001
1025,0.3134850561618805,0.41207996010780334,1.0,0.91,0.001
1026,0.3134845793247223,0.4122897684574127,1.0,0.91,0.001
1027,0.3134841322898865,0.41116178035736084,1.0,0.91,0.001
1028,0.3134836256504059,0.41249150037765503,1.0,0.91,0.001
1029,0.31348323822021484,0.41264235973358154,1.0,0.91,0.001
1030,0.31348279118537903,0.4119853675365448,1.0,0.91,0.001
1031,0.3134823143482208,0.41185152530670166,1.0,0.91,0.001
1032,0.313481867313385,0.41185232996940613,1.0,0.91,0.001
1033,0.3134814202785492,0.41216179728507996,1.0,0.91,0.001
1034,0.31348085403442383,0.41252681612968445,1.0,0.91,0.001
1035,0.3134804666042328,0.41175419092178345,1.0,0.91,0.001
1036,0.3134799897670746,0.4122267961502075,1.0,0.91,0.001
1037,0.3134796619415283,0.41221779584884644,1.0,0.91,0.001
1038,0.31347906589508057,0.4118328392505646,1.0,0.91,0.001
1039,0.3134787380695343,0.4121435582637787,1.0,0.91,0.001
1040,0.3134782016277313,0.41224995255470276,1.0,0.91,0.001
1041,0.31347769498825073,0.41175368428230286,1.0,0.91,0.001
1042,0.31347739696502686,0.4122699499130249,1.0,0.91,0.001
1043,0.3134770095348358,0.4123595058917999,1.0,0.91,0.001
1044,0.31347647309303284,0.41193869709968567,1.0,0.91,0.001
1045,0.31347599625587463,0.4117833077907562,1.0,0.91,0.001
1046,0.313475638628006,0.4122554659843445,1.0,0.91,0.001
1047,0.3134751617908478,0.41243302822113037,1.0,0.91,0.001
1048,0.31347474455833435,0.4119076430797577,1.0,0.91,0.001
1049,0.3134743273258209,0.41193488240242004,1.0,0.91,0.001
1050,0.3134739100933075,0.41244640946388245,1.0,0.91,0.001
1051,0.31347349286079407,0.4126160740852356,1.0,0.91,0.001
1052,0.3134729862213135,0.4117431640625,1.0,0.91,0.001
1053,0.31347253918647766,0.4115962088108063,1.0,0.91,0.001
1054,0.31347206234931946,0.41248318552970886,1.0,0.91,0.001
1055,0.31347164511680603,0.41218501329421997,1.0,0.91,0.001
1056,0.31347113847732544,0.4121726155281067,1.0,0.91,0.001
1057,0.3134708106517792,0.41237059235572815,1.0,0.91,0.001
1058,0.31347039341926575,0.4121340811252594,1.0,0.91,0.001
1059,0.3134699761867523,0.4117162227630615,1.0,0.91,0.001
1060,0.3134694993495941,0.4122745990753174,1.0,0.91,0.001
1061,0.3134689927101135,0.41249728202819824,1.0,0.91,0.001
1062,0.31346866488456726,0.41218075156211853,1.0,0.91,0.001
1063,0.31346839666366577,0.4120907485485077,1.0,0.91,0.001
1064,0.31346791982650757,0.41205650568008423,1.0,0.91,0.001
1065,0.3134673833847046,0.41207900643348694,1.0,0.91,0.001
1066,0.3134670555591583,0.4120330512523651,1.0,0.91,0.001
1067,0.3134665787220001,0.4119991064071655,1.0,0.91,0.001
1068,0.31346622109413147,0.4125182032585144,1.0,0.91,0.001
1069,0.3134659230709076,0.4117145538330078,1.0,0.91,0.001
1070,0.31346550583839417,0.41253411769866943,1.0,0.91,0.001
1071,0.31346502900123596,0.4120544493198395,1.0,0.91,0.001
1072,0.31346458196640015,0.41184455156326294,1.0,0.91,0.001
1073,0.3134641647338867,0.41232720017433167,1.0,0.91,0.001
1074,0.3134637773036957,0.41238534450531006,1.0,0.91,0.001
1075,0.31346333026885986,0.41183099150657654,1.0,0.91,0.001
1076,0.31346291303634644,0.41232308745384216,1.0,0.91,0.001
1077,0.31346261501312256,0.41223034262657166,1.0,0.91,0.001
1078,0.3134622275829315,0.41213592886924744,1.0,0.91,0.001
1079,0.3134617507457733,0.4122672975063324,1.0,0.91,0.001
1080,0.3134614825248718,0.4120723605155945,1.0,0.91,0.001
1081,0.3134610056877136,0.4120212495326996,1.0,0.91,0.001
1082,0.31346064805984497,0.4122307300567627,1.0,0.91,0.001
1083,0.31346017122268677,0.41219767928123474,1.0,0.91,0.001
1084,0.3134597837924957,0.4125156104564667,1.0,0.91,0.001
1085,0.31345948576927185,0.4119865894317627,1.0,0.91,0.001
1086,0.31345903873443604,0.4119552671909332,1.0,0.91,0.001
1087,0.31345856189727783,0.41236209869384766,1.0,0.91,0.001
1088,0.3134581446647644,0.41163796186447144,1.0,0.91,0.001
1089,0.313457727432251,0.41239920258522034,1.0,0.91,0.001
1090,0.31345734000205994,0.4123324453830719,1.0,0.91,0.001
1091,0.3134569227695465,0.41215503215789795,1.0,0.91,0.001
1092,0.31345656514167786,0.41201838850975037,1.0,0.91,0.001
1093,0.3134562373161316,0.4119797945022583,1.0,0.91,0.001
1094,0.31345584988594055,0.4120439291000366,1.0,0.91,0.001
1095,0.31345540285110474,0.41225504875183105,1.0,0.91,0.001
1096,0.31345507502555847,0.4123136103153229,1.0,0.91,0.001
1097,0.3134547472000122,0.4120362102985382,1.0,0.91,0.001
1098,0.31345435976982117,0.41232407093048096,1.0,0.91,0.001
1099,0.3134540021419525,0.4120214879512787,1.0,0.91,0.001
1100,0.31345364451408386,0.4120142459869385,1.0,0.91,0.001
1101,0.31345316767692566,0.4122147858142853,1.0,0.91,0.001
1102,0.3134527802467346,0.4121568202972412,1.0,0.91,0.001
1103,0.31345242261886597,0.41257670521736145,1.0,0.91,0.001
1104,0.31345200538635254,0.41202935576438904,1.0,0.91,0.001
1105,0.3134515881538391,0.41175392270088196,1.0,0.91,0.001
1106,0.31345120072364807,0.4119528830051422,1.0,0.91,0.001
1107,0.31345099210739136,0.41275033354759216,1.0,0.91,0.001
1108,0.31345057487487793,0.41234004497528076,1.0,0.91,0.001
1109,0.3134501576423645,0.4118867516517639,1.0,0.91,0.001
1110,0.313449889421463,0.4118584394454956,1.0,0.91,0.001
1111,0.31344956159591675,0.4120207726955414,1.0,0.91,0.001
1112,0.3134492039680481,0.41175785660743713,1.0,0.91,0.001
1113,0.3134489059448242,0.412073016166687,1.0,0.91,0.001
1114,0.3134485185146332,0.4128490388393402,1.0,0.91,0.001
1115,0.3134482502937317,0.4117060899734497,1.0,0.91,0.001
1116,0.3134477734565735,0.411421000957489,1.0,0.91,0.001
1117,0.31344735622406006,0.41262832283973694,1.0,0.91,0.001
1118,0.31344690918922424,0.41224589943885803,1.0,0.91,0.001
1119,0.313446581363678,0.411238431930542,1.0,0.91,0.001
1120,0.31344640254974365,0.4123690724372864,1.0,0.91,0.001
1121,0.3134458661079407,0.4118259847164154,1.0,0.91,0.001
1122,0.3134455382823944,0.4120727777481079,1.0,0.91,0.001
1123,0.31344515085220337,0.4120638370513916,1.0,0.91,0.001
1124,0.3134447932243347,0.4126397967338562,1.0,0.91,0.001
1125,0.3134444057941437,0.4117729961872101,1.0,0.91,0.001
1126,0.313444048166275,0.4114944040775299,1.0,0.91,0.001
1127,0.313443660736084,0.41200751066207886,1.0,0.91,0.001
1128,0.3134433329105377,0.41265061497688293,1.0,0.91,0.001
1129,0.31344300508499146,0.4118328094482422,1.0,0.91,0.001
1130,0.3134426176548004,0.41151106357574463,1.0,0.91,0.001
1131,0.31344228982925415,0.4121355712413788,1.0,0.91,0.001
1132,0.3134419620037079,0.4125851094722748,1.0,0.91,0.001
1133,0.31344157457351685,0.41223400831222534,1.0,0.91,0.001
1134,0.3134412467479706,0.41167181730270386,1.0,0.91,0.001
1135,0.3134409189224243,0.41200703382492065,1.0,0.91,0.001
1136,0.3134405016899109,0.41260191798210144,1.0,0.91,0.001
1137,0.313440203666687,0.41174575686454773,1.0,0.91,0.001
1138,0.31343987584114075,0.41188502311706543,1.0,0.91,0.001
1139,0.3134395182132721,0.412660151720047,1.0,0.91,0.001
1140,0.31343913078308105,0.41197219491004944,1.0,0.91,0.001
1141,0.3134387731552124,0.41204750537872314,1.0,0.91,0.001
1142,0.3134385049343109,0.4121364951133728,1.0,0.91,0.001
1143,0.31343817710876465,0.4123304784297943,1.0,0.91,0.001
1144,0.3134377598762512,0.4118451774120331,1.0,0.91,0.001
1145,0.3134373426437378,0.41239359974861145,1.0,0.91,0.001
1146,0.3134370744228363,0.4123782813549042,1.0,0.91,0.001
1147,0.3134367763996124,0.4119061231613159,1.0,0.91,0.001
1148,0.31343626976013184,0.41173917055130005,1.0,0.91,0.001
1149,0.31343594193458557,0.41213512420654297,1.0,0.91,0.001
1150,0.3134356439113617,0.4122072160243988,1.0,0.91,0.001
1151,0.3134353458881378,0.4122403860092163,1.0,0.91,0.001
1152,0.3134351074695587,0.4118361175060272,1.0,0.91,0.001
1153,0.3134346604347229,0.41209113597869873,1.0,0.91,0.001
1154,0.313434362411499,0.41203343868255615,1.0,0.91,0.001
1155,0.31343409419059753,0.4123356342315674,1.0,0.91,0.001
1156,0.3134336769580841,0.4120164215564728,1.0,0.91,0.001
1157,0.3134334683418274,0.41223227977752686,1.0,0.91,0.001
1158,0.3134332001209259,0.412015825510025,1.0,0.91,0.001
1159,0.313432902097702,0.41216686367988586,1.0,0.91,0.001
1160,0.3134324848651886,0.4122649133205414,1.0,0.91,0.001
1161,0.3134322762489319,0.4122810363769531,1.0,0.91,0.001
1162,0.31343188881874084,0.41181689500808716,1.0,0.91,0.001
1163,0.31343165040016174,0.41191205382347107,1.0,0.91,0.001
1164,0.3134312927722931,0.41297629475593567,1.0,0.91,0.001
1165,0.3134309649467468,0.4126400053501129,1.0,0.91,0.001
1166,0.3134306073188782,0.4115815758705139,1.0,0.91,0.001
1167,0.3134302496910095,0.41153624653816223,1.0,0.91,0.001
1168,0.31342995166778564,0.41215285658836365,1.0,0.91,0.001
1169,0.313429594039917,0.4127536118030548,1.0,0.91,0.001
1170,0.3134293258190155,0.412006139755249,1.0,0.91,0.001
1171,0.3134290277957916,0.41208910942077637,1.0,0.91,0.001
1172,0.31342875957489014,0.4126676917076111,1.0,0.91,0.001
1173,0.31342843174934387,0.4120178520679474,1.0,0.91,0.001
1174,0.31342819333076477,0.41207411885261536,1.0,0.91,0.001
1175,0.3134279251098633,0.4117196202278137,1.0,0.91,0.001
1176,0.3134276568889618,0.4121965169906616,1.0,0.91,0.001
1177,0.31342726945877075,0.4125039577484131,1.0,0.91,0.001
1178,0.31342706084251404,0.41241416335105896,1.0,0.91,0.001
1179,0.313426673412323,0.4120804965496063,1.0,0.91,0.001
1180,0.31342631578445435,0.411995530128479,1.0,0.91,0.001
1181,0.31342601776123047,0.4124571979045868,1.0,0.91,0.001
1182,0.313425749540329,0.4117525517940521,1.0,0.91,0.001
1183,0.31342554092407227,0.4124288260936737,1.0,0.91,0.001
1184,0.3134251534938812,0.4120672345161438,1.0,0.91,0.001
1185,0.31342485547065735,0.41192135214805603,1.0,0.91,0.001
1186,0.3134244680404663,0.4120698571205139,1.0,0.91,0.001
1187,0.313424289226532,0.41255927085876465,1.0,0.91,0.001
1188,0.31342390179634094,0.4122616946697235,1.0,0.91,0.001
1189,0.31342360377311707,0.41256123781204224,1.0,0.91,0.001
1190,0.3134233355522156,0.41169247031211853,1.0,0.91,0.001
1191,0.31342294812202454,0.41163691878318787,1.0,0.91,0.001
1192,0.31342270970344543,0.4129703938961029,1.0,0.91,0.001
1193,0.3134222626686096,0.4126042425632477,1.0,0.91,0.001
1194,0.3134220838546753,0.41163501143455505,1.0,0.91,0.001
1195,0.3134218156337738,0.41223394870758057,1.0,0.91,0.001
1196,0.31342148780822754,0.41253140568733215,1.0,0.91,0.001
1197,0.3134213089942932,0.41203048825263977,1.0,0.91,0.001
1198,0.3134209215641022,0.4116828143596649,1.0,0.91,0.001
1199,0.3134206533432007,0.4125140905380249,1.0,0.91,0.001
1200,0.3134203255176544,0.41199150681495667,1.0,0.91,0.001
1201,0.3134201169013977,0.4119878113269806,1.0,0.91,0.001
1202,0.3134196996688843,0.4124138653278351,1.0,0.91,0.001
1203,0.3134195804595947,0.4122564196586609,1.0,0.91,0.001
1204,0.3134192228317261,0.4123735725879669,1.0,0.91,0.001
1205,0.3134189248085022,0.41158074140548706,1.0,0.91,0.001
1206,0.3134187161922455,0.4120166003704071,1.0,0.91,0.001
1207,0.3134184777736664,0.41298964619636536,1.0,0.91,0.001
1208,0.3134181499481201,0.4122160077095032,1.0,0.91,0.001
1209,0.31341782212257385,0.4119114279747009,1.0,0.91,0.001
1210,0.31341761350631714,0.4118114411830902,1.0,0.91,0.001
1211,0.31341731548309326,0.4125187397003174,1.0,0.91,0.001
1212,0.31341707706451416,0.4120512306690216,1.0,0.91,0.001
1213,0.3134167194366455,0.4123690128326416,1.0,0.91,0.001
1214,0.3134165108203888,0.4122398793697357,1.0,0.91,0.001
1215,0.31341618299484253,0.41169482469558716,1.0,0.91,0.001
1216,0.3134159743785858,0.4124072194099426,1.0,0.91,0.001
1217,0.31341567635536194,0.41251346468925476,1.0,0.91,0.001
1218,0.31341540813446045,0.41236716508865356,1.0,0.91,0.001
1219,0.3134150803089142,0.4120902717113495,1.0,0.91,0.001
1220,0.3134148120880127,0.4121659994125366,1.0,0.91,0.001
1221,0.31341463327407837,0.41252049803733826,1.0,0.91,0.001
1222,0.3134143650531769,0.41251975297927856,1.0,0.91,0.001
1223,0.3134140074253082,0.41193321347236633,1.0,0.91,0.001
1224,0.3134137988090515,0.4121299684047699,1.0,0.91,0.001
1225,0.31341350078582764,0.4119994640350342,1.0,0.91,0.001
1226,0.31341326236724854,0.4123798608779907,1.0,0.91,0.001
1227,0.3134130537509918,0.4125708341598511,1.0,0.91,0.001
1228,0.3134128451347351,0.411749929189682,1.0,0.91,0.0007937005259840996
1229,0.31341254711151123,0.4124917685985565,1.0,0.91,0.0007937005259840996
1230,0.31341230869293213,0.4124511480331421,1.0,0.91,0.0007937005259840996
1231,0.31341201066970825,0.4129001498222351,1.0,0.91,0.0007937005259840996
1232,0.3134118616580963,0.4121539294719696,1.0,0.91,0.0007937005259840996
1233,0.3134116232395172,0.41188904643058777,1.0,0.91,0.0007937005259840996
1234,0.3134114742279053,0.41210582852363586,1.0,0.91,0.0007937005259840996
1235,0.31341126561164856,0.41226866841316223,1.0,0.91,0.0007937005259840996
1236,0.31341108679771423,0.4123774468898773,1.0,0.91,0.0007937005259840996
1237,0.31341084837913513,0.41280341148376465,1.0,0.91,0.0007937005259840996
1238,0.31341060996055603,0.412299245595932,1.0,0.91,0.0007937005259840996
1239,0.3134104013442993,0.41177117824554443,1.0,0.91,0.0007937005259840996
1240,0.313410222530365,0.41252022981643677,1.0,0.91,0.0007937005259840996
1241,0.3134099543094635,0.4126549959182739,1.0,0.91,0.0007937005259840996
1242,0.31340983510017395,0.41260871291160583,1.0,0.91,0.0007937005259840996
1243,0.313409686088562,0.41203728318214417,1.0,0.91,0.0007937005259840996
1244,0.31340932846069336,0.4122343361377716,1.0,0.91,0.0007937005259840996
1245,0.3134092390537262,0.41279032826423645,1.0,0.91,0.0007937005259840996
1246,0.31340909004211426,0.41201621294021606,1.0,0.91,0.0007937005259840996
1247,0.31340888142585754,0.4119829833507538,1.0,0.91,0.0007937005259840996
1248,0.3134085536003113,0.4125007688999176,1.0,0.91,0.0007937005259840996
1249,0.31340840458869934,0.4126887917518616,1.0,0.91,0.0007937005259840996
1250,0.3134082555770874,0.41247472167015076,1.0,0.91,0.0007937005259840996
1251,0.3134080171585083,0.412067711353302,1.0,0.91,0.0007937005259840996
1252,0.3134078085422516,0.4123130738735199,1.0,0.91,0.0007937005259840996
1253,0.3134075701236725,0.41267335414886475,1.0,0.91,0.0007937005259840996
1254,0.3134073317050934,0.41249823570251465,1.0,0.91,0.0007937005259840996
1255,0.31340712308883667,0.41274791955947876,1.0,0.91,0.0007937005259840996
1256,0.31340691447257996,0.41235074400901794,1.0,0.91,0.0007937005259840996
1257,0.3134067952632904,0.4122623801231384,1.0,0.91,0.0007937005259840996
1258,0.3134065866470337,0.4123815596103668,1.0,0.91,0.0007937005259840996
1259,0.31340640783309937,0.4126436114311218,1.0,0.91,0.0007937005259840996
1260,0.31340619921684265,0.41298145055770874,1.0,0.91,0.0007937005259840996
1261,0.31340599060058594,0.41214093565940857,1.0,0.91,0.0007937005259840996
1262,0.3134059011936188,0.4121040999889374,1.0,0.91,0.0007937005259840996
1263,0.31340569257736206,0.41247063875198364,1.0,0.91,0.0007937005259840996
1264,0.3134056031703949,0.41257956624031067,1.0,0.91,0.0007937005259840996
1265,0.31340524554252625,0.4126511514186859,1.0,0.91,0.0007937005259840996
1266,0.3134050667285919,0.4121161699295044,1.0,0.91,0.0007937005259840996
1267,0.3134048879146576,0.412704735994339,1.0,0.91,0.0007937005259840996
1268,0.3134046196937561,0.4127879738807678,1.0,0.91,0.0007937005259840996
1269,0.31340447068214417,0.41262462735176086,1.0,0.91,0.0007937005259840996
1270,0.3134043216705322,0.4123136103153229,1.0,0.91,0.0007937005259840996
1271,0.3134041428565979,0.412725567817688,1.0,0.91,0.0007937005259840996
1272,0.3134038746356964,0.4124075770378113,1.0,0.91,0.0007937005259840996
1273,0.3134037256240845,0.4124031066894531,1.0,0.91,0.0007937005259840996
1274,0.31340351700782776,0.41249680519104004,1.0,0.91,0.0007937005259840996
1275,0.31340330839157104,0.41273608803749084,1.0,0.91,0.0007937005259840996
1276,0.3134031593799591,0.4125632047653198,1.0,0.91,0.0007937005259840996
1277,0.3134029805660248,0.4124220907688141,1.0,0.91,0.0007937005259840996
1278,0.31340277194976807,0.4127999544143677,1.0,0.91,0.0007937005259840996
1279,0.31340256333351135,0.41295117139816284,1.0,0.91,0.0007937005259840996
1280,0.3134025037288666,0.41208744049072266,1.0,0.91,0.0007937005259840996
1281,0.3134022057056427,0.4119637608528137,1.0,0.91,0.0007937005259840996
1282,0.31340205669403076,0.41269028186798096,1.0,0.91,0.0007937005259840996
1283,0.31340187788009644,0.41308632493019104,1.0,0.91,0.0007937005259840996
1284,0.31340160965919495,0.41237324476242065,1.0,0.91,0.0007937005259840996
1285,0.313401460647583,0.4125218093395233,1.0,0.91,0.0007937005259840996
1286,0.3134012520313263,0.41245174407958984,1.0,0.91,0.0007937005259840996
1287,0.3134010434150696,0.41260120272636414,1.0,0.91,0.0007937005259840996
1288,0.31340083479881287,0.4123878479003906,1.0,0.91,0.0007937005259840996
1289,0.3134007751941681,0.41281071305274963,1.0,0.91,0.0007937005259840996
1290,0.3134004771709442,0.41224026679992676,1.0,0.91,0.0007937005259840996
1291,0.3134002685546875,0.4125217795372009,1.0,0.91,0.0007937005259840996
1292,0.31340017914772034,0.4125055968761444,1.0,0.91,0.0007937005259840996
1293,0.31339994072914124,0.4128224849700928,1.0,0.91,0.0007937005259840996
1294,0.3133997917175293,0.41256457567214966,1.0,0.91,0.0007937005259840996
1295,0.3133995234966278,0.4120332598686218,1.0,0.91,0.0007937005259840996
1296,0.3133993446826935,0.41285455226898193,1.0,0.91,0.0007937005259840996
1297,0.31339916586875916,0.4130999445915222,1.0,0.91,0.0007937005259840996
1298,0.313399076461792,0.41242313385009766,1.0,0.91,0.0007937005259840996
1299,0.3133988678455353,0.4123157858848572,1.0,0.91,0.0007937005259840996
1300,0.3133986294269562,0.4125319719314575,1.0,0.91,0.0007937005259840996
1301,0.31339842081069946,0.4131070077419281,1.0,0.91,0.0007937005259840996
1302,0.3133982717990875,0.4123896360397339,1.0,0.91,0.0007937005259840996
1303,0.31339818239212036,0.41213929653167725,1.0,0.91,0.0007937005259840996
1304,0.31339794397354126,0.4121006429195404,1.0,0.91,0.0007937005259840996
1305,0.3133978545665741,0.41293591260910034,1.0,0.91,0.0007937005259840996
1306,0.313397616147995,0.41343724727630615,1.0,0.91,0.0007937005259840996
1307,0.31339743733406067,0.41252991557121277,1.0,0.91,0.0007937005259840996
1308,0.31339722871780396,0.41230347752571106,1.0,0.91,0.0007937005259840996
1309,0.31339702010154724,0.4122532904148102,1.0,0.91,0.0007937005259840996
1310,0.3133968710899353,0.41273510456085205,1.0,0.91,0.0007937005259840996
1311,0.3133965730667114,0.41288793087005615,1.0,0.91,0.0007937005259840996
1312,0.31339648365974426,0.4129064083099365,1.0,0.91,0.0007937005259840996
1313,0.31339627504348755,0.4124099016189575,1.0,0.91,0.0007937005259840996
1314,0.3133961260318756,0.4125021994113922,1.0,0.91,0.0007937005259840996
1315,0.3133959174156189,0.4120326340198517,1.0,0.91,0.0007937005259840996
1316,0.3133958578109741,0.41262760758399963,1.0,0.91,0.0007937005259840996
1317,0.31339558959007263,0.4129523038864136,1.0,0.91,0.0007937005259840996
1318,0.3133953809738159,0.4129619300365448,1.0,0.91,0.0007937005259840996
1319,0.31339529156684875,0.41224491596221924,1.0,0.91,0.0007937005259840996
1320,0.31339508295059204,0.412278413772583,1.0,0.91,0.0007937005259840996
1321,0.31339484453201294,0.4125378429889679,1.0,0.91,0.0007937005259840996
1322,0.3133946359157562,0.4130677878856659,1.0,0.91,0.0007937005259840996
1323,0.3133945167064667,0.4134139120578766,1.0,0.91,0.0007937005259840996
1324,0.3133942782878876,0.41242659091949463,1.0,0.91,0.0007937005259840996
1325,0.31339412927627563,0.4121612310409546,1.0,0.91,0.0007937005259840996
1326,0.3133939802646637,0.4125194549560547,1.0,0.91,0.0007937005259840996
1327,0.313393771648407,0.412489652633667,1.0,0.91,0.0007937005259840996
1328,0.31339362263679504,0.4124661386013031,1.0,0.91,0.0007937005259840996
1329,0.31339338421821594,0.4132000207901001,1.0,0.91,0.0007937005259840996
1330,0.3133932054042816,0.41316914558410645,1.0,0.91,0.0007937005259840996
1331,0.31339308619499207,0.41219741106033325,1.0,0.91,0.0006299605249474364
1332,0.3133928179740906,0.41209396719932556,1.0,0.91,0.0006299605249474364
1333,0.3133927583694458,0.41262248158454895,1.0,0.91,0.0006299605249474364
1334,0.3133925497531891,0.41309380531311035,1.0,0.91,0.0006299605249474364
1335,0.3133924603462219,0.4130130112171173,1.0,0.91,0.0006299605249474364
1336,0.3133923411369324,0.4126807749271393,1.0,0.91,0.0006299605249474364
1337,0.31339219212532043,0.41233691573143005,1.0,0.91,0.0006299605249474364
1338,0.3133920133113861,0.41267678141593933,1.0,0.91,0.0006299605249474364
1339,0.31339192390441895,0.41282203793525696,1.0,0.91,0.0006299605249474364
1340,0.31339171528816223,0.41297852993011475,1.0,0.91,0.0006299605249474364
1341,0.31339162588119507,0.4125406742095947,1.0,0.91,0.0006299605249474364
1342,0.31339144706726074,0.4126255512237549,1.0,0.91,0.0006299605249474364
1343,0.3133913576602936,0.41242480278015137,1.0,0.91,0.0006299605249474364
1344,0.31339123845100403,0.41263607144355774,1.0,0.91,0.0006299605249474364
1345,0.3133910894393921,0.41276344656944275,1.0,0.91,0.0006299605249474364
1346,0.3133908808231354,0.41278406977653503,1.0,0.91,0.0006299605249474364
1347,0.3133907616138458,0.4124416410923004,1.0,0.91,0.0006299605249474364
1348,0.3133905827999115,0.4127933979034424,1.0,0.91,0.0006299605249474364
1349,0.31339049339294434,0.41279181838035583,1.0,0.91,0.0006299605249474364
1350,0.3133903741836548,0.41283169388771057,1.0,0.91,0.0006299605249474364
1351,0.31339022517204285,0.4123695492744446,1.0,0.91,0.0006299605249474364
1352,0.3133900463581085,0.41260096430778503,1.0,0.91,0.0006299605249474364
1353,0.3133898973464966,0.4128119647502899,1.0,0.91,0.0006299605249474364
1354,0.3133898675441742,0.4131925106048584,1.0,0.91,0.0006299605249474364
1355,0.3133898079395294,0.41279688477516174,1.0,0.91,0.0006299605249474364
1356,0.3133896291255951,0.41250839829444885,1.0,0.91,0.0006299605249474364
1357,0.31338953971862793,0.4123905897140503,1.0,0.91,0.0006299605249474364
1358,0.313389390707016,0.4127814769744873,1.0,0.91,0.0006299605249474364
1359,0.31338921189308167,0.4127582609653473,1.0,0.91,0.0006299605249474364
1360,0.3133891522884369,0.4129597544670105,1.0,0.91,0.0006299605249474364
1361,0.31338903307914734,0.41270312666893005,1.0,0.91,0.0006299605249474364
1362,0.3133889138698578,0.4123375713825226,1.0,0.91,0.0006299605249474364
1363,0.31338876485824585,0.41259270906448364,1.0,0.91,0.0006299605249474364
1364,0.3133887052536011,0.41286641359329224,1.0,0.91,0.0006299605249474364
1365,0.31338852643966675,0.4128853976726532,1.0,0.91,0.0006299605249474364
1366,0.31338849663734436,0.41247498989105225,1.0,0.91,0.0006299605249474364
1367,0.31338831782341003,0.412520170211792,1.0,0.91,0.0006299605249474364
1368,0.3133881390094757,0.41258013248443604,1.0,0.91,0.0006299605249474364
1369,0.31338798999786377,0.41266074776649475,1.0,0.91,0.0006299605249474364
1370,0.3133879005908966,0.4127720296382904,1.0,0.91,0.0006299605249474364
1371,0.31338784098625183,0.4126035273075104,1.0,0.91,0.0006299605249474364
1372,0.31338760256767273,0.4126581847667694,1.0,0.91,0.0006299605249474364
1373,0.3133874833583832,0.4129819869995117,1.0,0.91,0.0006299605249474364
1374,0.3133874237537384,0.4126073122024536,1.0,0.91,0.0006299605249474364
1375,0.31338730454444885,0.4126461148262024,1.0,0.91,0.0006299605249474364
1376,0.31338709592819214,0.4121629297733307,1.0,0.91,0.0006299605249474364
1377,0.31338703632354736,0.4130825698375702,1.0,0.91,0.0006299605249474364
1378,0.31338685750961304,0.4132503271102905,1.0,0.91,0.0006299605249474364
1379,0.31338679790496826,0.41281455755233765,1.0,0.91,0.0006299605249474364
1380,0.3133866488933563,0.4122726023197174,1.0,0.91,0.0006299605249474364
1381,0.3133864998817444,0.412455677986145,1.0,0.91,0.0006299605249474364
1382,0.313386470079422,0.41307222843170166,1.0,0.91,0.0006299605249474364
1383,0.31338629126548767,0.4128184914588928,1.0,0.91,0.0006299605249474364
1384,0.3133862316608429,0.41271063685417175,1.0,0.91,0.0006299605249474364
1385,0.3133859932422638,0.4125062823295593,1.0,0.91,0.0006299605249474364
1386,0.31338587403297424,0.41234326362609863,1.0,0.91,0.0006299605249474364
1387,0.3133857548236847,0.412741482257843,1.0,0.91,0.0006299605249474364
1388,0.31338560581207275,0.4128240644931793,1.0,0.91,0.0006299605249474364
1389,0.3133854568004608,0.4127289056777954,1.0,0.91,0.0006299605249474364
1390,0.3133853077888489,0.41275203227996826,1.0,0.91,0.0006299605249474364
1391,0.3133851885795593,0.41289085149765015,1.0,0.91,0.0006299605249474364
1392,0.3133850395679474,0.41269293427467346,1.0,0.91,0.0006299605249474364
1393,0.31338492035865784,0.412553071975708,1.0,0.91,0.0006299605249474364
1394,0.3133848011493683,0.4127947986125946,1.0,0.91,0.0006299605249474364
1395,0.3133847117424011,0.41282936930656433,1.0,0.91,0.0006299605249474364
1396,0.31338462233543396,0.41262146830558777,1.0,0.91,0.0006299605249474364
1397,0.31338444352149963,0.41249409317970276,1.0,0.91,0.0006299605249474364
1398,0.31338435411453247,0.4127984344959259,1.0,0.91,0.0006299605249474364
1399,0.31338420510292053,0.41274330019950867,1.0,0.91,0.0006299605249474364
1400,0.31338411569595337,0.4130844175815582,1.0,0.91,0.0006299605249474364
1401,0.31338396668434143,0.41257545351982117,1.0,0.91,0.0006299605249474364
1402,0.3133838474750519,0.4126646816730499,1.0,0.91,0.0006299605249474364
1403,0.3133837580680847,0.4125443994998932,1.0,0.91,0.0006299605249474364
1404,0.31338366866111755,0.4125995934009552,1.0,0.91,0.0006299605249474364
1405,0.3133834898471832,0.41261881589889526,1.0,0.91,0.0006299605249474364
1406,0.3133833110332489,0.41270050406455994,1.0,0.91,0.0006299605249474364
1407,0.3133833110332489,0.41311541199684143,1.0,0.91,0.0006299605249474364
1408,0.31338319182395935,0.41295096278190613,1.0,0.91,0.0006299605249474364
1409,0.31338298320770264,0.41251248121261597,1.0,0.91,0.0006299605249474364
1410,0.31338298320770264,0.41266947984695435,1.0,0.91,0.0006299605249474364
1411,0.31338274478912354,0.41287845373153687,1.0,0.91,0.0006299605249474364
1412,0.31338265538215637,0.4131227433681488,1.0,0.91,0.0006299605249474364
1413,0.3133825659751892,0.41277599334716797,1.0,0.91,0.0006299605249474364
1414,0.3133823275566101,0.4123966097831726,1.0,0.91,0.0006299605249474364
1415,0.31338223814964294,0.4126681089401245,1.0,0.91,0.0006299605249474364
1416,0.31338217854499817,0.4128461480140686,1.0,0.91,0.0006299605249474364
1417,0.31338202953338623,0.41301465034484863,1.0,0.91,0.0006299605249474364
1418,0.31338194012641907,0.41263502836227417,1.0,0.91,0.0006299605249474364
1419,0.31338176131248474,0.41262856125831604,1.0,0.91,0.0006299605249474364
1420,0.3133816421031952,0.4130104184150696,1.0,0.91,0.0006299605249474364
1421,0.31338149309158325,0.4130978286266327,1.0,0.91,0.0006299605249474364
1422,0.3133813738822937,0.41253161430358887,1.0,0.91,0.0006299605249474364
1423,0.31338128447532654,0.4124389886856079,1.0,0.91,0.0006299605249474364
1424,0.313381165266037,0.412607342004776,1.0,0.91,0.0006299605249474364
1425,0.31338104605674744,0.41320177912712097,1.0,0.91,0.0006299605249474364
1426,0.3133809268474579,0.41300952434539795,1.0,0.91,0.0006299605249474364
1427,0.31338074803352356,0.4129311740398407,1.0,0.91,0.0006299605249474364
1428,0.3133806884288788,0.4125751554965973,1.0,0.91,0.0006299605249474364
1429,0.31338053941726685,0.4124619662761688,1.0,0.91,0.0006299605249474364
1430,0.3133803606033325,0.41316449642181396,1.0,0.91,0.0006299605249474364
1431,0.31338030099868774,0.41302481293678284,1.0,0.91,0.0006299605249474364
1432,0.3133802115917206,0.4123932719230652,1.0,0.91,0.0006299605249474364
1433,0.3133801221847534,0.4125216007232666,1.0,0.91,0.0006299605249474364
1434,0.3133799433708191,0.4131815433502197,1.0,0.91,0.0006299605249474364
1435,0.31337985396385193,0.4128897488117218,1.0,0.91,0.0006299605249474364
1436,0.31337970495224,0.4131593704223633,1.0,0.91,0.0006299605249474364
1437,0.31337958574295044,0.41298285126686096,1.0,0.91,0.0006299605249474364
1438,0.3133794665336609,0.4129166007041931,1.0,0.91,0.0006299605249474364
1439,0.31337928771972656,0.4123038053512573,1.0,0.91,0.0006299605249474364
1440,0.3133791983127594,0.41268008947372437,1.0,0.91,0.0006299605249474364
1441,0.31337907910346985,0.41337746381759644,1.0,0.91,0.0006299605249474364
1442,0.3133789002895355,0.41283050179481506,1.0,0.91,0.0006299605249474364
1443,0.31337878108024597,0.4127436578273773,1.0,0.91,0.0006299605249474364
1444,0.3133787214756012,0.4127718210220337,1.0,0.91,0.0006299605249474364
1445,0.31337854266166687,0.41286152601242065,1.0,0.91,0.0006299605249474364
1446,0.3133784532546997,0.4131258428096771,1.0,0.91,0.0006299605249474364
1447,0.31337836384773254,0.4129329025745392,1.0,0.91,0.0006299605249474364
1448,0.313378244638443,0.4129164218902588,1.0,0.91,0.0006299605249474364
1449,0.3133782148361206,0.412975013256073,1.0,0.91,0.0006299605249474364
1450,0.31337809562683105,0.41288653016090393,1.0,0.91,0.0006299605249474364
1451,0.3133779466152191,0.4128551781177521,1.0,0.91,0.0006299605249474364
1452,0.3133777678012848,0.41257554292678833,1.0,0.91,0.0006299605249474364
1453,0.3133777678012848,0.41319015622138977,1.0,0.91,0.0006299605249474364
1454,0.3133775591850281,0.4130551517009735,1.0,0.91,0.0006299605249474364
1455,0.3133775591850281,0.4131897985935211,1.0,0.91,0.0006299605249474364
1456,0.31337735056877136,0.4124011993408203,1.0,0.91,0.0006299605249474364
1457,0.3133772909641266,0.4131324887275696,1.0,0.91,0.0006299605249474364
1458,0.3133770823478699,0.41306495666503906,1.0,0.91,0.0006299605249474364
1459,0.3133769929409027,0.4127848744392395,1.0,0.91,0.0006299605249474364
1460,0.31337693333625793,0.4128517806529999,1.0,0.91,0.0006299605249474364
1461,0.31337687373161316,0.4131014347076416,1.0,0.91,0.0006299605249474364
1462,0.31337666511535645,0.41282859444618225,1.0,0.91,0.0006299605249474364
1463,0.31337660551071167,0.4129752218723297,1.0,0.91,0.0006299605249474364
1464,0.3133764863014221,0.41305387020111084,1.0,0.91,0.0006299605249474364
1465,0.31337639689445496,0.41253671050071716,1.0,0.91,0.0006299605249474364
1466,0.31337621808052063,0.41278019547462463,1.0,0.91,0.0006299605249474364
1467,0.3133760690689087,0.4131171703338623,1.0,0.91,0.0006299605249474364
1468,0.31337597966194153,0.41305240988731384,1.0,0.91,0.0006299605249474364
1469,0.31337589025497437,0.41279932856559753,1.0,0.91,0.0006299605249474364
1470,0.3133757412433624,0.4128667414188385,1.0,0.91,0.0006299605249474364
1471,0.31337568163871765,0.41298866271972656,1.0,0.91,0.0006299605249474364
1472,0.3133755922317505,0.41304999589920044,1.0,0.91,0.0006299605249474364
1473,0.31337547302246094,0.41328752040863037,1.0,0.91,0.0006299605249474364
1474,0.3133753538131714,0.4130057096481323,1.0,0.91,0.0006299605249474364
1475,0.3133751153945923,0.4126223623752594,1.0,0.91,0.0006299605249474364
1476,0.3133750855922699,0.41256386041641235,1.0,0.91,0.0006299605249474364
1477,0.31337496638298035,0.41300734877586365,1.0,0.91,0.0006299605249474364
1478,0.3133748173713684,0.413461834192276,1.0,0.91,0.0006299605249474364
1479,0.3133746385574341,0.41281944513320923,1.0,0.91,0.0006299605249474364
1480,0.3133745789527893,0.4127581715583801,1.0,0.91,0.0006299605249474364
1481,0.31337448954582214,0.4127730131149292,1.0,0.91,0.0006299605249474364
1482,0.313374400138855,0.41312354803085327,1.0,0.91,0.0006299605249474364
1483,0.31337428092956543,0.4131718575954437,1.0,0.91,0.0006299605249474364
1484,0.3133741617202759,0.41284671425819397,1.0,0.91,0.0006299605249474364
1485,0.31337404251098633,0.41285258531570435,1.0,0.91,0.0006299605249474364
1486,0.313373863697052,0.41299203038215637,1.0,0.91,0.0006299605249474364
1487,0.31337377429008484,0.4129859507083893,1.0,0.91,0.0006299605249474364
1488,0.3133736848831177,0.4130162000656128,1.0,0.91,0.0006299605249474364
1489,0.31337353587150574,0.4131038784980774,1.0,0.91,0.0006299605249474364
1490,0.3133734166622162,0.4131721556186676,1.0,0.91,0.0006299605249474364
1491,0.31337326765060425,0.41304436326026917,1.0,0.91,0.0006299605249474364
1492,0.3133731484413147,0.4125032126903534,1.0,0.91,0.0006299605249474364
1493,0.31337305903434753,0.4129033386707306,1.0,0.91,0.0006299605249474364
1494,0.31337299942970276,0.413082480430603,1.0,0.91,0.0006299605249474364
1495,0.3133729100227356,0.4129483103752136,1.0,0.91,0.0006299605249474364
1496,0.31337279081344604,0.41286909580230713,1.0,0.91,0.0006299605249474364
1497,0.3133727014064789,0.41277816891670227,1.0,0.91,0.0006299605249474364
1498,0.31337258219718933,0.41298311948776245,1.0,0.91,0.0006299605249474364
1499,0.3133724629878998,0.41336047649383545,1.0,0.91,0.0006299605249474364
1500,0.31337231397628784,0.4129498302936554,1.0,0.91,0.0006299605249474364
1501,0.3133721947669983,0.41262418031692505,1.0,0.91,0.0006299605249474364
1502,0.31337210536003113,0.4131867587566376,1.0,0.91,0.0006299605249474364
1503,0.31337201595306396,0.41331589221954346,1.0,0.91,0.0006299605249474364
1504,0.313371866941452,0.41295406222343445,1.0,0.91,0.0006299605249474364
1505,0.31337180733680725,0.4126569628715515,1.0,0.91,0.0006299605249474364
1506,0.3133716881275177,0.41289034485816956,1.0,0.91,0.0006299605249474364
1507,0.3133716285228729,0.4132218062877655,1.0,0.91,0.0006299605249474364
1508,0.31337153911590576,0.4132451117038727,1.0,0.91,0.0006299605249474364
1509,0.3133713901042938,0.41292935609817505,1.0,0.91,0.0006299605249474364
1510,0.31337130069732666,0.4128403961658478,1.0,0.91,0.0006299605249474364
1511,0.3133712112903595,0.4127919375896454,1.0,0.91,0.0006299605249474364
1512,0.31337106227874756,0.4129217565059662,1.0,0.91,0.0006299605249474364
1513,0.31337088346481323,0.4129788279533386,1.0,0.91,0.0006299605249474364
1514,0.31337082386016846,0.41284334659576416,1.0,0.91,0.0006299605249474364
1515,0.3133707642555237,0.4133284091949463,1.0,0.91,0.0006299605249474364
1516,0.3133707046508789,0.41293251514434814,1.0,0.91,0.0006299605249474364
1517,0.31337061524391174,0.412637859582901,1.0,0.91,0.0006299605249474364
1518,0.3133704960346222,0.41291260719299316,1.0,0.91,0.0006299605249474364
1519,0.31337037682533264,0.41343796253204346,1.0,0.91,0.0006299605249474364
1520,0.31337031722068787,0.4133714437484741,1.0,0.91,0.0006299605249474364
1521,0.3133701682090759,0.4125514328479767,1.0,0.91,0.0006299605249474364
1522,0.31337010860443115,0.4126235842704773,1.0,0.91,0.0006299605249474364
1523,0.3133699595928192,0.4130450487136841,1.0,0.91,0.0006299605249474364
1524,0.31336984038352966,0.413539320230484,1.0,0.91,0.0006299605249474364
1525,0.3133698105812073,0.41332384943962097,1.0,0.91,0.0006299605249474364
1526,0.3133697211742401,0.412557452917099,1.0,0.91,0.0006299605249474364
1527,0.3133695721626282,0.4127761721611023,1.0,0.91,0.0004999999999999997
1528,0.31336939334869385,0.4126606285572052,1.0,0.91,0.0004999999999999997
1529,0.31336939334869385,0.41346630454063416,1.0,0.91,0.0004999999999999997
1530,0.3133693039417267,0.4134587347507477,1.0,0.91,0.0004999999999999997
1531,0.31336915493011475,0.41299960017204285,1.0,0.91,0.0004999999999999997
1532,0.31336909532546997,0.41282135248184204,1.0,0.91,0.0004999999999999997
1533,0.3133689761161804,0.41276228427886963,1.0,0.91,0.0004999999999999997
1534,0.3133689761161804,0.4131217300891876,1.0,0.91,0.0004999999999999997
1535,0.3133687973022461,0.41298773884773254,1.0,0.91,0.0004999999999999997
1536,0.3133687674999237,0.4130994379520416,1.0,0.91,0.0004999999999999997
1537,0.31336861848831177,0.4131059944629669,1.0,0.91,0.0004999999999999997
1538,0.3133685290813446,0.4129917025566101,1.0,0.91,0.0004999999999999997
1539,0.31336843967437744,0.41287267208099365,1.0,0.91,0.0004999999999999997
1540,0.3133683502674103,0.4129546284675598,1.0,0.91,0.0004999999999999997
1541,0.3133682906627655,0.41315189003944397,1.0,0.91,0.0004999999999999997
1542,0.31336820125579834,0.41286399960517883,1.0,0.91,0.0004999999999999997
1543,0.3133681118488312,0.41339293122291565,1.0,0.91,0.0004999999999999997
1544,0.31336793303489685,0.41321927309036255,1.0,0.91,0.0004999999999999997
1545,0.31336793303489685,0.412932813167572,1.0,0.91,0.0004999999999999997
1546,0.3133678436279297,0.4128866493701935,1.0,0.91,0.0004999999999999997
1547,0.3133677542209625,0.4128594994544983,1.0,0.91,0.0004999999999999997
1548,0.31336766481399536,0.41296908259391785,1.0,0.91,0.0004999999999999997
1549,0.3133676052093506,0.4126071035861969,1.0,0.91,0.0004999999999999997
1550,0.3133675158023834,0.41319960355758667,1.0,0.91,0.0004999999999999997
1551,0.31336745619773865,0.4129928946495056,1.0,0.91,0.0004999999999999997
1552,0.3133673667907715,0.4134324789047241,1.0,0.91,0.0004999999999999997
1553,0.31336724758148193,0.4131161570549011,1.0,0.91,0.0004999999999999997
1554,0.31336718797683716,0.4129921793937683,1.0,0.91,0.0004999999999999997
1555,0.3133670687675476,0.41288983821868896,1.0,0.91,0.0004999999999999997
1556,0.31336697936058044,0.4132317006587982,1.0,0.91,0.0004999999999999997
1557,0.31336694955825806,0.4130622148513794,1.0,0.91,0.0004999999999999997
1558,0.3133668601512909,0.4130140542984009,1.0,0.91,0.0004999999999999997
1559,0.31336677074432373,0.41294944286346436,1.0,0.91,0.0004999999999999997
1560,0.31336671113967896,0.41319966316223145,1.0,0.91,0.0004999999999999997
1561,0.31336668133735657,0.4133400321006775,1.0,0.91,0.0004999999999999997
1562,0.31336653232574463,0.413049578666687,1.0,0.91,0.0004999999999999997
1563,0.3133663833141327,0.4128967523574829,1.0,0.91,0.0004999999999999997
1564,0.3133663535118103,0.41304659843444824,1.0,0.91,0.0004999999999999997
1565,0.313366174697876,0.41346389055252075,1.0,0.91,0.0004999999999999997
1566,0.313366174697876,0.4131374657154083,1.0,0.91,0.0004999999999999997
1567,0.3133660554885864,0.4129377007484436,1.0,0.91,0.0004999999999999997
1568,0.3133660554885864,0.41301265358924866,1.0,0.91,0.0004999999999999997
1569,0.3133658766746521,0.41344401240348816,1.0,0.91,0.0004999999999999997
1570,0.3133658468723297,0.41344448924064636,1.0,0.91,0.0004999999999999997
1571,0.31336575746536255,0.413074254989624,1.0,0.91,0.0004999999999999997
1572,0.3133656978607178,0.4126798212528229,1.0,0.91,0.0004999999999999997
1573,0.3133656084537506,0.4126530587673187,1.0,0.91,0.0004999999999999997
1574,0.313365638256073,0.41317012906074524,1.0,0.91,0.0004999999999999997
1575,0.31336551904678345,0.41363972425460815,1.0,0.9,0.0004999999999999997
1576,0.3133654296398163,0.4133375585079193,1.0,0.91,0.0004999999999999997
1577,0.3133653402328491,0.4132726192474365,1.0,0.91,0.0004999999999999997
1578,0.31336525082588196,0.41268086433410645,1.0,0.91,0.0004999999999999997
1579,0.3133651614189148,0.4128643870353699,1.0,0.91,0.0004999999999999997
1580,0.31336507201194763,0.4131249189376831,1.0,0.91,0.0004999999999999997
1581,0.31336501240730286,0.4134860336780548,1.0,0.91,0.0004999999999999997
1582,0.3133648931980133,0.41301804780960083,1.0,0.91,0.0004999999999999997
1583,0.31336483359336853,0.41313618421554565,1.0,0.91,0.0004999999999999997
1584,0.31336474418640137,0.4133201241493225,1.0,0.91,0.0004999999999999997
1585,0.3133646845817566,0.41316866874694824,1.0,0.91,0.0004999999999999997
1586,0.3133646547794342,0.413013219833374,1.0,0.91,0.0004999999999999997
1587,0.31336450576782227,0.4131619334220886,1.0,0.91,0.0004999999999999997
1588,0.3133644759654999,0.4131160080432892,1.0,0.91,0.0004999999999999997
1589,0.3133643865585327,0.41340336203575134,1.0,0.91,0.0004999999999999997
1590,0.31336426734924316,0.41287845373153687,1.0,0.91,0.0004999999999999997
1591,0.31336426734924316,0.4131700396537781,1.0,0.91,0.0004999999999999997
1592,0.313364177942276,0.413160502910614,1.0,0.91,0.0004999999999999997
1593,0.31336405873298645,0.41341841220855713,1.0,0.91,0.0004999999999999997
1594,0.3133639991283417,0.4133145809173584,1.0,0.91,0.0004999999999999997
1595,0.3133639097213745,0.41307786107063293,1.0,0.91,0.0004999999999999997
1596,0.31336379051208496,0.4129318296909332,1.0,0.91,0.0004999999999999997
1597,0.31336379051208496,0.4130154848098755,1.0,0.91,0.0004999999999999997
1598,0.31336361169815063,0.413269966840744,1.0,0.91,0.0004999999999999997
1599,0.31336352229118347,0.41357502341270447,1.0,0.91,0.0004999999999999997
1600,0.31336352229118347,0.413323312997818,1.0,0.91,0.0004999999999999997
1601,0.3133634328842163,0.4132373332977295,1.0,0.91,0.0004999999999999997
1602,0.31336337327957153,0.41284382343292236,1.0,0.91,0.0004999999999999997
1603,0.31336328387260437,0.4130561947822571,1.0,0.91,0.0004999999999999997
1604,0.3133631646633148,0.4132870137691498,1.0,0.91,0.0004999999999999997
1605,0.3133631646633148,0.4130501449108124,1.0,0.91,0.0004999999999999997
1606,0.31336304545402527,0.4134857654571533,1.0,0.91,0.0004999999999999997
1607,0.3133629560470581,0.4133897125720978,1.0,0.91,0.0004999999999999997
1608,0.3133629262447357,0.41306036710739136,1.0,0.91,0.0004999999999999997
1609,0.3133627772331238,0.4129689037799835,1.0,0.91,0.0004999999999999997
1610,0.3133626878261566,0.4133140444755554,1.0,0.91,0.0004999999999999997
1611,0.313362717628479,0.41320309042930603,1.0,0.91,0.0004999999999999997
1612,0.31336256861686707,0.41342952847480774,1.0,0.91,0.0004999999999999997
1613,0.3133624792098999,0.41327938437461853,1.0,0.91,0.0004999999999999997
1614,0.3133624196052551,0.41328147053718567,1.0,0.91,0.0004999999999999997
1615,0.3133624196052551,0.41322600841522217,1.0,0.91,0.0004999999999999997
1616,0.3133622407913208,0.41302651166915894,1.0,0.91,0.0004999999999999997
1617,0.3133622109889984,0.413086861371994,1.0,0.91,0.0004999999999999997
1618,0.31336209177970886,0.413288950920105,1.0,0.91,0.0004999999999999997
1619,0.3133620023727417,0.4133013188838959,1.0,0.91,0.0004999999999999997
1620,0.3133619427680969,0.4133113920688629,1.0,0.91,0.0004999999999999997
1621,0.31336188316345215,0.4133257567882538,1.0,0.91,0.0004999999999999997
1622,0.3133617639541626,0.4129299223423004,1.0,0.91,0.0004999999999999997
1623,0.31336167454719543,0.4131811261177063,1.0,0.91,0.0004999999999999997
1624,0.31336164474487305,0.4135904610157013,1.0,0.91,0.0004999999999999997
1625,0.3133615553379059,0.41355517506599426,1.0,0.91,0.0004999999999999997
1626,0.3133614659309387,0.41322609782218933,1.0,0.91,0.0004999999999999997
1627,0.31336134672164917,0.4129520654678345,1.0,0.91,0.0004999999999999997
1628,0.3133612871170044,0.41299113631248474,1.0,0.91,0.00039685026299204955
1629,0.3133612275123596,0.4132830500602722,1.0,0.91,0.00039685026299204955
1630,0.31336113810539246,0.4131051301956177,1.0,0.91,0.00039685026299204955
1631,0.31336110830307007,0.41356006264686584,1.0,0.91,0.00039685026299204955
1632,0.3133610188961029,0.41326645016670227,1.0,0.91,0.00039685026299204955
1633,0.3133610188961029,0.4131580591201782,1.0,0.91,0.00039685026299204955
1634,0.31336086988449097,0.41306763887405396,1.0,0.91,0.00039685026299204955
1635,0.3133608102798462,0.4129200279712677,1.0,0.91,0.00039685026299204955
1636,0.31336072087287903,0.41323167085647583,1.0,0.91,0.00039685026299204955
1637,0.31336066126823425,0.41353657841682434,1.0,0.91,0.00039685026299204955
1638,0.31336063146591187,0.41349831223487854,1.0,0.91,0.00039685026299204955
1639,0.3133605718612671,0.41326525807380676,1.0,0.91,0.00039685026299204955
1640,0.31336045265197754,0.41312819719314575,1.0,0.91,0.00039685026299204955
1641,0.31336045265197754,0.4130440950393677,1.0,0.91,0.00039685026299204955
1642,0.31336039304733276,0.41316744685173035,1.0,0.91,0.00039685026299204955
1643,0.313360333442688,0.413211852312088,1.0,0.91,0.00039685026299204955
1644,0.3133603036403656,0.4136044383049011,1.0,0.91,0.00039685026299204955
1645,0.31336018443107605,0.41299939155578613,1.0,0.91,0.00039685026299204955
1646,0.3133601248264313,0.4134058356285095,1.0,0.91,0.00039685026299204955
1647,0.3133601248264313,0.4135194420814514,1.0,0.91,0.00039685026299204955
1648,0.3133600056171417,0.4128575026988983,1.0,0.91,0.00039685026299204955
1649,0.31335991621017456,0.41308602690696716,1.0,0.91,0.00039685026299204955
1650,0.31335991621017456,0.4131756126880646,1.0,0.91,0.00039685026299204955
1651,0.3133597671985626,0.41357502341270447,1.0,0.91,0.00039685026299204955
1652,0.31335973739624023,0.413419634103775,1.0,0.91,0.00039685026299204955
1653,0.31335970759391785,0.4131590723991394,1.0,0.91,0.00039685026299204955
1654,0.31335970759391785,0.4132426381111145,1.0,0.91,0.00039685026299204955
1655,0.31335964798927307,0.4132143259048462,1.0,0.91,0.00039685026299204955
1656,0.3133595883846283,0.41325804591178894,1.0,0.91,0.00039685026299204955
1657,0.31335949897766113,0.4130919277667999,1.0,0.91,0.00039685026299204955
1658,0.3133593797683716,0.4132974147796631,1.0,0.91,0.00039685026299204955
1659,0.3133593499660492,0.41348445415496826,1.0,0.91,0.00039685026299204955
1660,0.3133593499660492,0.41318657994270325,1.0,0.91,0.00039685026299204955
1661,0.3133592903614044,0.41339024901390076,1.0,0.91,0.00039685026299204955
1662,0.31335920095443726,0.4133692979812622,1.0,0.91,0.00039685026299204955
1663,0.3133590817451477,0.41327136754989624,1.0,0.91,0.00039685026299204955
1664,0.3133590817451477,0.41297391057014465,1.0,0.91,0.00039685026299204955
1665,0.31335902214050293,0.41315844655036926,1.0,0.91,0.00039685026299204955
1666,0.3133590519428253,0.4134608507156372,1.0,0.91,0.00039685026299204955
1667,0.31335893273353577,0.4135754406452179,1.0,0.91,0.00039685026299204955
1668,0.31335878372192383,0.4134159982204437,1.0,0.91,0.00039685026299204955
1669,0.31335878372192383,0.4133652150630951,1.0,0.91,0.00039685026299204955
1670,0.31335875391960144,0.41323143243789673,1.0,0.91,0.00039685026299204955
1671,0.3133586049079895,0.41308730840682983,1.0,0.91,0.00039685026299204955
1672,0.3133585453033447,0.4130578637123108,1.0,0.91,0.00039685026299204955
1673,0.31335848569869995,0.413385808467865,1.0,0.91,0.00039685026299204955
1674,0.3133584260940552,0.4135296642780304,1.0,0.91,0.00039685026299204955
1675,0.3133584260940552,0.41320517659187317,1.0,0.91,0.00039685026299204955
1676,0.313358336687088,0.4133928418159485,1.0,0.91,0.00039685026299204955
1677,0.31335821747779846,0.4135202169418335,1.0,0.91,0.00039685026299204955
1678,0.3133581578731537,0.4130714535713196,1.0,0.91,0.00039685026299204955
1679,0.3133580684661865,0.41315093636512756,1.0,0.91,0.00039685026299204955
1680,0.3133580684661865,0.41309764981269836,1.0,0.91,0.00039685026299204955
1681,0.3133580684661865,0.4135493040084839,1.0,0.91,0.00039685026299204955
1682,0.313357949256897,0.4134810268878937,1.0,0.91,0.00039685026299204955
1683,0.3133579194545746,0.41341903805732727,1.0,0.91,0.00039685026299204955
1684,0.3133578598499298,0.4131759703159332,1.0,0.91,0.00039685026299204955
1685,0.31335774064064026,0.4130946397781372,1.0,0.91,0.00039685026299204955
1686,0.3133576810359955,0.41332098841667175,1.0,0.91,0.00039685026299204955
1687,0.3133575916290283,0.413426011800766,1.0,0.91,0.00039685026299204955
1688,0.3133575916290283,0.4136405885219574,1.0,0.91,0.00039685026299204955
1689,0.31335753202438354,0.41319215297698975,1.0,0.91,0.00039685026299204955
1690,0.3133574426174164,0.4131768047809601,1.0,0.91,0.00039685026299204955
1691,0.3133573830127716,0.41339796781539917,1.0,0.91,0.00039685026299204955
1692,0.31335732340812683,0.4133381247520447,1.0,0.91,0.00039685026299204955
1693,0.31335732340812683,0.41331300139427185,1.0,0.91,0.00039685026299204955
1694,0.3133572041988373,0.4133192002773285,1.0,0.91,0.00039685026299204955
1695,0.3133571743965149,0.4132176339626312,1.0,0.91,0.00039685026299204955
1696,0.3133571147918701,0.41342759132385254,1.0,0.91,0.00039685026299204955
1697,0.31335705518722534,0.41336700320243835,1.0,0.91,0.00039685026299204955
1698,0.31335699558258057,0.4133565425872803,1.0,0.91,0.00039685026299204955
1699,0.313356876373291,0.4132322072982788,1.0,0.91,0.00039685026299204955
1700,0.31335684657096863,0.4136705696582794,1.0,0.91,0.00039685026299204955
1701,0.31335681676864624,0.4132300317287445,1.0,0.91,0.00039685026299204955
1702,0.31335675716400146,0.41322648525238037,1.0,0.91,0.00039685026299204955
1703,0.3133566975593567,0.41327178478240967,1.0,0.91,0.00039685026299204955
1704,0.3133566081523895,0.4134542942047119,1.0,0.91,0.00039685026299204955
1705,0.31335657835006714,0.41340386867523193,1.0,0.91,0.00039685026299204955
1706,0.3133564889431,0.4133146405220032,1.0,0.91,0.00039685026299204955
1707,0.3133564591407776,0.413573294878006,1.0,0.91,0.00039685026299204955
1708,0.3133564293384552,0.4133610129356384,1.0,0.91,0.00039685026299204955
1709,0.31335633993148804,0.41331642866134644,1.0,0.91,0.00039685026299204955
1710,0.3133563697338104,0.4132777750492096,1.0,0.91,0.00039685026299204955
1711,0.3133562207221985,0.4132043123245239,1.0,0.91,0.00039685026299204955
1712,0.3133561909198761,0.4130875766277313,1.0,0.91,0.00039685026299204955
1713,0.3133561611175537,0.41331854462623596,1.0,0.91,0.00039685026299204955
1714,0.31335610151290894,0.41350463032722473,1.0,0.91,0.00039685026299204955
1715,0.31335604190826416,0.4137633144855499,1.0,0.91,0.00039685026299204955
1716,0.313355952501297,0.41347557306289673,1.0,0.91,0.00039685026299204955
1717,0.3133558928966522,0.41308143734931946,1.0,0.91,0.00039685026299204955
1718,0.31335586309432983,0.41318371891975403,1.0,0.91,0.00039685026299204955
1719,0.31335580348968506,0.41317570209503174,1.0,0.91,0.00039685026299204955
1720,0.3133557438850403,0.41355422139167786,1.0,0.91,0.00039685026299204955
1721,0.31335562467575073,0.41353839635849,1.0,0.91,0.00039685026299204955
1722,0.3133555054664612,0.41338375210762024,1.0,0.91,0.00039685026299204955
1723,0.3133554756641388,0.41344964504241943,1.0,0.91,0.00039685026299204955
1724,0.3133554756641388,0.41332557797431946,1.0,0.91,0.00039685026299204955
1725,0.31335538625717163,0.41312268376350403,1.0,0.91,0.00039685026299204955
1726,0.31335535645484924,0.4133562445640564,1.0,0.91,0.00039685026299204955
1727,0.31335529685020447,0.4132784605026245,1.0,0.91,0.00039685026299204955
1728,0.3133552074432373,0.4134954512119293,1.0,0.91,0.00039685026299204955
1729,0.3133551776409149,0.41366955637931824,1.0,0.91,0.00031498026247371797
1730,0.3133551776409149,0.41358017921447754,1.0,0.91,0.00031498026247371797
1731,0.31335514783859253,0.4133588671684265,1.0,0.91,0.00031498026247371797
1732,0.31335508823394775,0.4131399989128113,1.0,0.91,0.00031498026247371797
1733,0.31335505843162537,0.4131986200809479,1.0,0.91,0.00031498026247371797
1734,0.3133549392223358,0.41326436400413513,1.0,0.91,0.00031498026247371797
1735,0.31335487961769104,0.41341400146484375,1.0,0.91,0.00031498026247371797
1736,0.3133549392223358,0.4136109948158264,1.0,0.91,0.00031498026247371797
1737,0.31335482001304626,0.4137033224105835,1.0,0.91,0.00031498026247371797
1738,0.31335482001304626,0.4130801260471344,1.0,0.91,0.00031498026247371797
1739,0.3133547306060791,0.4132999777793884,1.0,0.91,0.00031498026247371797
1740,0.3133547306060791,0.41339001059532166,1.0,0.91,0.00031498026247371797
1741,0.31335458159446716,0.41337355971336365,1.0,0.91,0.00031498026247371797
1742,0.31335458159446716,0.4134049713611603,1.0,0.91,0.00031498026247371797
1743,0.3133545517921448,0.413356751203537,1.0,0.91,0.00031498026247371797
1744,0.3133544921875,0.4135572910308838,1.0,0.91,0.00031498026247371797
1745,0.3133544623851776,0.41323959827423096,1.0,0.91,0.00031498026247371797
1746,0.31335437297821045,0.4133542776107788,1.0,0.91,0.00031498026247371797
1747,0.3133542537689209,0.4134994447231293,1.0,0.91,0.00031498026247371797
1748,0.3133542537689209,0.4136849641799927,1.0,0.91,0.00031498026247371797
1749,0.3133541941642761,0.41367512941360474,1.0,0.91,0.00031498026247371797
1750,0.31335413455963135,0.41362273693084717,1.0,0.91,0.00031498026247371797
1751,0.3133540451526642,0.41330674290657043,1.0,0.91,0.00031498026247371797
1752,0.3133540451526642,0.4130261540412903,1.0,0.91,0.00031498026247371797
1753,0.3133540451526642,0.41324543952941895,1.0,0.91,0.00031498026247371797
1754,0.3133539855480194,0.41330844163894653,1.0,0.91,0.00031498026247371797
1755,0.313353955745697,0.4134535491466522,1.0,0.91,0.00031498026247371797
1756,0.31335389614105225,0.4136062264442444,1.0,0.91,0.00031498026247371797
1757,0.31335383653640747,0.41338881850242615,1.0,0.91,0.00031498026247371797
1758,0.3133537769317627,0.4135614335536957,1.0,0.91,0.00031498026247371797
1759,0.3133537173271179,0.4133128821849823,1.0,0.91,0.00031498026247371797
1760,0.3133537173271179,0.41327816247940063,1.0,0.91,0.00031498026247371797
1761,0.31335368752479553,0.41342899203300476,1.0,0.91,0.00031498026247371797
1762,0.31335365772247314,0.41342663764953613,1.0,0.91,0.00031498026247371797
1763,0.31335359811782837,0.41350647807121277,1.0,0.91,0.00031498026247371797
1764,0.3133535385131836,0.4134509563446045,1.0,0.91,0.00031498026247371797
1765,0.31335341930389404,0.41321074962615967,1.0,0.91,0.00031498026247371797
1766,0.31335344910621643,0.4135046899318695,1.0,0.91,0.00031498026247371797
1767,0.31335344910621643,0.4134611189365387,1.0,0.91,0.00031498026247371797
1768,0.31335335969924927,0.41342830657958984,1.0,0.91,0.00031498026247371797
1769,0.3133533000946045,0.41348275542259216,1.0,0.91,0.00031498026247371797
1770,0.3133532404899597,0.4132133424282074,1.0,0.91,0.00031498026247371797
1771,0.31335321068763733,0.4135487377643585,1.0,0.91,0.00031498026247371797
1772,0.31335315108299255,0.413352370262146,1.0,0.91,0.00031498026247371797
1773,0.3133530914783478,0.41338104009628296,1.0,0.91,0.00031498026247371797
1774,0.3133530616760254,0.41338077187538147,1.0,0.91,0.00031498026247371797
1775,0.31335291266441345,0.4133194386959076,1.0,0.91,0.00031498026247371797
1776,0.31335288286209106,0.4133561849594116,1.0,0.91,0.00031498026247371797
1777,0.31335288286209106,0.41363486647605896,1.0,0.91,0.00031498026247371797
1778,0.31335288286209106,0.4135814607143402,1.0,0.91,0.00031498026247371797
1779,0.3133527934551239,0.413316547870636,1.0,0.91,0.00031498026247371797
1780,0.3133527338504791,0.41335204243659973,1.0,0.91,0.00031498026247371797
1781,0.31335270404815674,0.4135419428348541,1.0,0.91,0.00031498026247371797
1782,0.31335267424583435,0.4134639501571655,1.0,0.91,0.00031498026247371797
1783,0.3133525550365448,0.4134141206741333,1.0,0.91,0.00031498026247371797
1784,0.3133525848388672,0.41327622532844543,1.0,0.91,0.00031498026247371797
1785,0.3133525252342224,0.4133226275444031,1.0,0.91,0.00031498026247371797
1786,0.3133525550365448,0.4134531319141388,1.0,0.91,0.00031498026247371797
1787,0.31335246562957764,0.4137963354587555,1.0,0.91,0.00031498026247371797
1788,0.31335246562957764,0.4134432077407837,1.0,0.91,0.00031498026247371797
1789,0.31335243582725525,0.4132341742515564,1.0,0.91,0.00031498026247371797
1790,0.3133522868156433,0.4135313332080841,1.0,0.91,0.00031498026247371797
1791,0.3133522570133209,0.41368168592453003,1.0,0.91,0.00031498026247371797
1792,0.31335222721099854,0.4134179651737213,1.0,0.91,0.00031498026247371797
1793,0.31335219740867615,0.41357162594795227,1.0,0.91,0.00031498026247371797
1794,0.31335216760635376,0.41317370533943176,1.0,0.91,0.00031498026247371797
1795,0.31335213780403137,0.4133763015270233,1.0,0.91,0.00031498026247371797
1796,0.31335213780403137,0.4132739007472992,1.0,0.91,0.00031498026247371797
1797,0.3133520781993866,0.4135549068450928,1.0,0.91,0.00031498026247371797
1798,0.3133520185947418,0.41358649730682373,1.0,0.91,0.00031498026247371797
1799,0.31335195899009705,0.4134824872016907,1.0,0.91,0.00031498026247371797
1800,0.31335192918777466,0.4134451150894165,1.0,0.91,0.00031498026247371797
1801,0.3133518099784851,0.41327545046806335,1.0,0.91,0.00031498026247371797
1802,0.3133518099784851,0.4134678244590759,1.0,0.91,0.00031498026247371797
1803,0.31335175037384033,0.4134838879108429,1.0,0.91,0.00031498026247371797
1804,0.31335172057151794,0.4135662317276001,1.0,0.91,0.00031498026247371797
1805,0.31335166096687317,0.41318976879119873,1.0,0.91,0.00031498026247371797
1806,0.31335166096687317,0.4136463403701782,1.0,0.91,0.00031498026247371797
1807,0.3133516013622284,0.4134303331375122,1.0,0.91,0.00031498026247371797
1808,0.3133515417575836,0.41329631209373474,1.0,0.91,0.00031498026247371797
1809,0.31335151195526123,0.4133143723011017,1.0,0.91,0.00031498026247371797
1810,0.31335145235061646,0.4133622348308563,1.0,0.91,0.00031498026247371797
1811,0.3133513629436493,0.4132830500602722,1.0,0.91,0.00031498026247371797
1812,0.3133513331413269,0.4136728048324585,1.0,0.91,0.00031498026247371797
1813,0.31335124373435974,0.41355159878730774,1.0,0.91,0.00031498026247371797
1814,0.31335124373435974,0.4135708212852478,1.0,0.91,0.00031498026247371797
1815,0.31335121393203735,0.4132923483848572,1.0,0.91,0.00031498026247371797
1816,0.3133511245250702,0.413279265165329,1.0,0.91,0.00031498026247371797
1817,0.3133511245250702,0.41333043575286865,1.0,0.91,0.00031498026247371797
1818,0.3133510947227478,0.4135266840457916,1.0,0.91,0.00031498026247371797
1819,0.3133510649204254,0.4133593738079071,1.0,0.91,0.00031498026247371797
1820,0.31335097551345825,0.41366255283355713,1.0,0.91,0.00031498026247371797
1821,0.3133509159088135,0.41351431608200073,1.0,0.91,0.00031498026247371797
1822,0.3133509159088135,0.4135151207447052,1.0,0.91,0.00031498026247371797
1823,0.3133508563041687,0.41333889961242676,1.0,0.91,0.00031498026247371797
1824,0.3133507966995239,0.41364938020706177,1.0,0.91,0.00031498026247371797
1825,0.31335076689720154,0.41350075602531433,1.0,0.91,0.00031498026247371797
1826,0.31335076689720154,0.41352254152297974,1.0,0.91,0.00031498026247371797
1827,0.3133506774902344,0.41335609555244446,1.0,0.91,0.00031498026247371797
1828,0.3133506178855896,0.4133135974407196,1.0,0.91,0.00031498026247371797
1829,0.31335052847862244,0.4134560525417328,1.0,0.91,0.00031498026247371797
1830,0.31335052847862244,0.4135124087333679,1.0,0.91,0.0002499999999999997
1831,0.31335049867630005,0.41349318623542786,1.0,0.91,0.0002499999999999997
1832,0.31335049867630005,0.41357189416885376,1.0,0.91,0.0002499999999999997
1833,0.31335046887397766,0.41351670026779175,1.0,0.91,0.0002499999999999997
1834,0.3133503794670105,0.41338059306144714,1.0,0.91,0.0002499999999999997
1835,0.3133503496646881,0.41336867213249207,1.0,0.91,0.0002499999999999997
1836,0.3133503198623657,0.4134102165699005,1.0,0.91,0.0002499999999999997
1837,0.31335029006004333,0.41341423988342285,1.0,0.91,0.0002499999999999997
1838,0.31335029006004333,0.4138645827770233,1.0,0.91,0.0002499999999999997
1839,0.3133501410484314,0.4140142500400543,1.0,0.9,0.0002499999999999997
1840,0.3133501708507538,0.4135381281375885,1.0,0.91,0.0002499999999999997
1841,0.3133501410484314,0.4132271111011505,1.0,0.91,0.0002499999999999997
1842,0.3133500814437866,0.41343045234680176,1.0,0.91,0.0002499999999999997
1843,0.31335002183914185,0.41329115629196167,1.0,0.91,0.0002499999999999997
1844,0.31335002183914185,0.41339072585105896,1.0,0.91,0.0002499999999999997
1845,0.31334996223449707,0.41353878378868103,1.0,0.91,0.0002499999999999997
1846,0.3133499324321747,0.4135053753852844,1.0,0.91,0.0002499999999999997
1847,0.3133499324321747,0.4135213792324066,1.0,0.91,0.0002499999999999997
1848,0.3133498430252075,0.4136337637901306,1.0,0.91,0.0002499999999999997
1849,0.31334981322288513,0.4135364294052124,1.0,0.91,0.0002499999999999997
1850,0.31334981322288513,0.41348496079444885,1.0,0.91,0.0002499999999999997
1851,0.31334981322288513,0.4133385419845581,1.0,0.91,0.0002499999999999997
1852,0.31334978342056274,0.413562536239624,1.0,0.91,0.0002499999999999997
1853,0.3133496940135956,0.41353142261505127,1.0,0.91,0.0002499999999999997
1854,0.31334972381591797,0.41357848048210144,1.0,0.91,0.0002499999999999997
1855,0.3133496344089508,0.4134857654571533,1.0,0.91,0.0002499999999999997
1856,0.3133496940135956,0.41363072395324707,1.0,0.91,0.0002499999999999997
1857,0.3133496046066284,0.4134797751903534,1.0,0.91,0.0002499999999999997
1858,0.3133496046066284,0.41346508264541626,1.0,0.91,0.0002499999999999997
1859,0.31334957480430603,0.41351640224456787,1.0,0.91,0.0002499999999999997
1860,0.31334948539733887,0.4136956036090851,1.0,0.91,0.0002499999999999997
1861,0.31334948539733887,0.4135172367095947,1.0,0.91,0.0002499999999999997
1862,0.3133493959903717,0.41356998682022095,1.0,0.91,0.0002499999999999997
1863,0.3133494257926941,0.4134792685508728,1.0,0.91,0.0002499999999999997
1864,0.3133494257926941,0.4134853482246399,1.0,0.91,0.0002499999999999997
1865,0.31334927678108215,0.4135153889656067,1.0,0.91,0.0002499999999999997
1866,0.31334927678108215,0.41358277201652527,1.0,0.91,0.0002499999999999997
1867,0.31334933638572693,0.4134562611579895,1.0,0.91,0.0002499999999999997
1868,0.3133492171764374,0.4134466052055359,1.0,0.91,0.0002499999999999997
1869,0.3133492171764374,0.4135124683380127,1.0,0.91,0.0002499999999999997
1870,0.3133491277694702,0.4138108193874359,1.0,0.91,0.0002499999999999997
1871,0.3133491277694702,0.4137365221977234,1.0,0.91,0.0002499999999999997
1872,0.3133490979671478,0.41387104988098145,1.0,0.91,0.0002499999999999997
1873,0.31334903836250305,0.4134429693222046,1.0,0.91,0.0002499999999999997
1874,0.3133489489555359,0.4134114980697632,1.0,0.91,0.0002499999999999997
1875,0.31334900856018066,0.4134145677089691,1.0,0.91,0.0002499999999999997
1876,0.3133488893508911,0.4134734272956848,1.0,0.91,0.0002499999999999997
1877,0.3133489191532135,0.413679838180542,1.0,0.91,0.0002499999999999997
1878,0.3133488893508911,0.4136371910572052,1.0,0.91,0.0002499999999999997
