,train loss,val loss,train acc,val acc,lr
0,0.6835641264915466,0.6344143748283386,0.68,0.64,0.001
1,0.5911608934402466,0.594058632850647,0.81,0.67,0.001
2,0.5600723028182983,0.5890122056007385,0.8,0.66,0.001
3,0.542300820350647,0.5727246403694153,0.81,0.71,0.001
4,0.5313289165496826,0.5639869570732117,0.81,0.74,0.001
5,0.5225614309310913,0.5583621859550476,0.81,0.75,0.001
6,0.5146989822387695,0.5519014000892639,0.81,0.76,0.001
7,0.5083945989608765,0.5458518266677856,0.81,0.77,0.001
8,0.502228856086731,0.5417850017547607,0.82,0.77,0.001
9,0.4966296851634979,0.5384606719017029,0.83,0.77,0.001
10,0.49141284823417664,0.5352164506912231,0.83,0.77,0.001
11,0.4863860309123993,0.5316380262374878,0.83,0.77,0.001
12,0.48154982924461365,0.5275089740753174,0.84,0.76,0.001
13,0.4767131507396698,0.5230652093887329,0.86,0.75,0.001
14,0.4717836380004883,0.5193365216255188,0.86,0.76,0.001
15,0.46714767813682556,0.5159788727760315,0.87,0.77,0.001
16,0.46260830760002136,0.5131468176841736,0.87,0.79,0.001
17,0.4581207036972046,0.5100582242012024,0.89,0.8,0.001
18,0.45377597212791443,0.5060859322547913,0.9,0.8,0.001
19,0.44952157139778137,0.5031985640525818,0.91,0.8,0.001
20,0.4453392028808594,0.5000483393669128,0.91,0.8,0.001
21,0.4412652254104614,0.49726632237434387,0.91,0.8,0.001
22,0.4374508261680603,0.4946041405200958,0.91,0.8,0.001
23,0.4335644245147705,0.4911912977695465,0.91,0.82,0.001
24,0.429431676864624,0.4881514608860016,0.91,0.83,0.001
25,0.4253302812576294,0.484527587890625,0.91,0.83,0.001
26,0.42119520902633667,0.4879057705402374,0.93,0.83,0.001
27,0.41764819622039795,0.48627209663391113,0.94,0.85,0.001
28,0.41532814502716064,0.47960200905799866,0.94,0.85,0.001
29,0.40877845883369446,0.4736606478691101,0.95,0.84,0.001
30,0.4051171839237213,0.4745093882083893,0.96,0.85,0.001
31,0.4019593298435211,0.47620832920074463,0.96,0.84,0.001
32,0.39592230319976807,0.47664251923561096,0.96,0.85,0.001
33,0.39506733417510986,0.47464385628700256,0.97,0.86,0.001
34,0.3915959596633911,0.4643320143222809,0.97,0.87,0.001
35,0.38536572456359863,0.4650883972644806,0.97,0.84,0.001
36,0.3858518898487091,0.4638209640979767,0.96,0.87,0.001
37,0.37867823243141174,0.46114617586135864,0.97,0.86,0.001
38,0.3777299225330353,0.45713019371032715,0.97,0.86,0.001
39,0.3731987774372101,0.47243714332580566,0.98,0.86,0.001
40,0.3702039420604706,0.4581716060638428,0.98,0.86,0.001
41,0.3686921298503876,0.4525335729122162,0.98,0.87,0.001
42,0.36502692103385925,0.49309471249580383,0.98,0.83,0.001
43,0.36386898159980774,0.4512712359428406,0.98,0.86,0.001
44,0.3632531762123108,0.4646434783935547,0.98,0.86,0.001
45,0.35840725898742676,0.461676687002182,0.98,0.89,0.001
46,0.3600226640701294,0.46214377880096436,0.98,0.87,0.001
47,0.3572531044483185,0.4541913568973541,0.98,0.86,0.001
48,0.35393399000167847,0.4455791711807251,0.98,0.87,0.001
49,0.35305359959602356,0.44055506587028503,0.98,0.87,0.001
50,0.3491472899913788,0.4597657024860382,0.99,0.86,0.001
51,0.3487386405467987,0.4442921578884125,0.98,0.87,0.001
52,0.34579795598983765,0.44836628437042236,0.98,0.87,0.001
53,0.34540942311286926,0.4426143169403076,0.99,0.89,0.001
54,0.34410104155540466,0.48315465450286865,0.99,0.86,0.001
55,0.3412606120109558,0.4473183751106262,0.99,0.87,0.001
56,0.34161627292633057,0.49003344774246216,0.99,0.81,0.001
57,0.3386404812335968,0.43688395619392395,0.99,0.87,0.001
58,0.33771175146102905,0.48741862177848816,0.99,0.83,0.001
59,0.3364756405353546,0.44226962327957153,0.99,0.87,0.001
60,0.3347373306751251,0.457896888256073,1.0,0.86,0.001
61,0.3329194188117981,0.4330659806728363,1.0,0.89,0.001
62,0.33204150199890137,0.43686366081237793,1.0,0.87,0.001
63,0.330926775932312,0.43304920196533203,1.0,0.87,0.001
64,0.3289617896080017,0.4295274317264557,1.0,0.88,0.001
65,0.32902106642723083,0.43512779474258423,1.0,0.88,0.001
66,0.32731953263282776,0.43223336338996887,1.0,0.89,0.001
67,0.32707101106643677,0.4346449673175812,1.0,0.87,0.001
68,0.3257633447647095,0.4367593824863434,1.0,0.9,0.001
69,0.32502639293670654,0.4453255534172058,1.0,0.88,0.001
70,0.32475966215133667,0.4472808837890625,1.0,0.87,0.001
71,0.32358020544052124,0.45242252945899963,1.0,0.84,0.001
72,0.323465496301651,0.4258275330066681,1.0,0.89,0.001
73,0.3225022852420807,0.43662428855895996,1.0,0.89,0.001
74,0.3221973776817322,0.42661207914352417,1.0,0.89,0.001
75,0.3216935396194458,0.4316747188568115,1.0,0.89,0.001
76,0.3212217688560486,0.4216480553150177,1.0,0.89,0.001
77,0.32078924775123596,0.42121583223342896,1.0,0.89,0.001
78,0.3205031454563141,0.42066311836242676,1.0,0.89,0.001
79,0.3200441598892212,0.41988280415534973,1.0,0.89,0.001
80,0.31985756754875183,0.42141297459602356,1.0,0.89,0.001
81,0.31947529315948486,0.42800572514533997,1.0,0.9,0.001
82,0.31919118762016296,0.4283169209957123,1.0,0.9,0.001
83,0.31895917654037476,0.41738101840019226,1.0,0.89,0.001
84,0.3186829090118408,0.42359837889671326,1.0,0.9,0.001
85,0.3184872567653656,0.42047083377838135,1.0,0.89,0.001
86,0.3183065354824066,0.42997971177101135,1.0,0.9,0.001
87,0.318057656288147,0.42174771428108215,1.0,0.89,0.001
88,0.31792646646499634,0.4184490442276001,1.0,0.89,0.001
89,0.3177240490913391,0.419139564037323,1.0,0.89,0.001
90,0.3175879418849945,0.42004719376564026,1.0,0.89,0.001
91,0.3174242675304413,0.42013442516326904,1.0,0.89,0.001
92,0.317308634519577,0.4173685312271118,1.0,0.9,0.001
93,0.31714946031570435,0.41774290800094604,1.0,0.89,0.001
94,0.3170582056045532,0.4187862277030945,1.0,0.89,0.001
95,0.31690192222595215,0.41719332337379456,1.0,0.9,0.001
96,0.3168128430843353,0.4172660708427429,1.0,0.89,0.001
97,0.31669703125953674,0.417999804019928,1.0,0.89,0.001
98,0.3166075646877289,0.41963618993759155,1.0,0.89,0.001
99,0.31650710105895996,0.417976975440979,1.0,0.89,0.001
100,0.31642356514930725,0.41559305787086487,1.0,0.89,0.001
101,0.3163306713104248,0.4164968430995941,1.0,0.89,0.001
102,0.3162632882595062,0.41742438077926636,1.0,0.9,0.001
103,0.31618422269821167,0.41887497901916504,1.0,0.89,0.001
104,0.3161047697067261,0.4159165620803833,1.0,0.9,0.001
105,0.3160400688648224,0.4152854084968567,1.0,0.89,0.001
106,0.3159727156162262,0.4158172607421875,1.0,0.89,0.001
107,0.3159152567386627,0.4165530502796173,1.0,0.9,0.001
108,0.31584757566452026,0.41665947437286377,1.0,0.89,0.001
109,0.31579211354255676,0.4154389202594757,1.0,0.9,0.001
110,0.3157349228858948,0.41518348455429077,1.0,0.89,0.001
111,0.3156850337982178,0.4154245853424072,1.0,0.9,0.001
112,0.3156302869319916,0.4154454171657562,1.0,0.9,0.001
113,0.3155840337276459,0.41491785645484924,1.0,0.9,0.001
114,0.315539687871933,0.4149182438850403,1.0,0.89,0.001
115,0.3154953718185425,0.41528987884521484,1.0,0.9,0.001
116,0.3154545724391937,0.41527703404426575,1.0,0.89,0.001
117,0.315410852432251,0.4144606292247772,1.0,0.9,0.001
118,0.3153713047504425,0.4142281413078308,1.0,0.89,0.001
119,0.31533095240592957,0.41466087102890015,1.0,0.9,0.001
120,0.3152967393398285,0.4151638448238373,1.0,0.9,0.001
121,0.3152587115764618,0.4146679639816284,1.0,0.9,0.001
122,0.31522509455680847,0.4138854146003723,1.0,0.9,0.001
123,0.31519168615341187,0.41402390599250793,1.0,0.89,0.001
124,0.31516149640083313,0.41441088914871216,1.0,0.9,0.001
125,0.3151310980319977,0.41499441862106323,1.0,0.9,0.001
126,0.3150990903377533,0.41455960273742676,1.0,0.9,0.001
127,0.31506896018981934,0.4139280319213867,1.0,0.89,0.001
128,0.3150402903556824,0.41401511430740356,1.0,0.89,0.001
129,0.3150136470794678,0.41410908102989197,1.0,0.9,0.001
130,0.3149867653846741,0.41419780254364014,1.0,0.9,0.001
131,0.31495997309684753,0.4137912690639496,1.0,0.9,0.001
132,0.3149334788322449,0.41378384828567505,1.0,0.9,0.001
133,0.3149101734161377,0.41386839747428894,1.0,0.9,0.001
134,0.31488797068595886,0.41378048062324524,1.0,0.9,0.001
135,0.31486403942108154,0.41370680928230286,1.0,0.9,0.001
136,0.3148409128189087,0.41354259848594666,1.0,0.89,0.001
137,0.3148180842399597,0.4136844277381897,1.0,0.89,0.001
138,0.3147967755794525,0.4138078987598419,1.0,0.9,0.001
139,0.3147772550582886,0.41349196434020996,1.0,0.9,0.001
140,0.3147580027580261,0.41340816020965576,1.0,0.89,0.001
141,0.31473708152770996,0.41348281502723694,1.0,0.89,0.001
142,0.3147169351577759,0.41377148032188416,1.0,0.9,0.001
143,0.31469690799713135,0.413757860660553,1.0,0.9,0.001
144,0.3146786689758301,0.41320884227752686,1.0,0.9,0.001
145,0.31466230750083923,0.4130907356739044,1.0,0.89,0.001
146,0.31464529037475586,0.41315963864326477,1.0,0.89,0.001
147,0.3146263062953949,0.41352352499961853,1.0,0.9,0.001
148,0.31460779905319214,0.41339218616485596,1.0,0.9,0.001
149,0.3145933449268341,0.413004070520401,1.0,0.9,0.001
150,0.3145785629749298,0.41312459111213684,1.0,0.89,0.001
151,0.3145610988140106,0.41318008303642273,1.0,0.9,0.001
152,0.3145439624786377,0.41310110688209534,1.0,0.9,0.001
153,0.31453046202659607,0.4131195843219757,1.0,0.9,0.001
154,0.31451699137687683,0.4128912687301636,1.0,0.9,0.001
155,0.31450045108795166,0.4130767583847046,1.0,0.9,0.001
156,0.31448403000831604,0.41311967372894287,1.0,0.9,0.001
157,0.3144708573818207,0.41294488310813904,1.0,0.9,0.001
158,0.31445860862731934,0.4129779040813446,1.0,0.9,0.001
159,0.3144426643848419,0.4128035604953766,1.0,0.89,0.001
160,0.3144286274909973,0.41288459300994873,1.0,0.9,0.001
161,0.31441718339920044,0.4130168557167053,1.0,0.9,0.001
162,0.3144044578075409,0.41281792521476746,1.0,0.9,0.001
163,0.3143908381462097,0.41272109746932983,1.0,0.9,0.001
164,0.3143782913684845,0.4127555191516876,1.0,0.89,0.001
165,0.3143673539161682,0.41269561648368835,1.0,0.9,0.001
166,0.3143562376499176,0.4128172993659973,1.0,0.9,0.001
167,0.3143433630466461,0.41257405281066895,1.0,0.9,0.001
168,0.3143307566642761,0.41258761286735535,1.0,0.89,0.001
169,0.3143204152584076,0.41266798973083496,1.0,0.89,0.001
170,0.31430986523628235,0.4126277267932892,1.0,0.9,0.001
171,0.31429874897003174,0.41259148716926575,1.0,0.9,0.001
172,0.31428682804107666,0.4124455153942108,1.0,0.9,0.001
173,0.31427663564682007,0.41255056858062744,1.0,0.89,0.001
174,0.3142678141593933,0.4125848412513733,1.0,0.89,0.001
175,0.31425827741622925,0.4125998616218567,1.0,0.9,0.001
176,0.31424689292907715,0.4126187562942505,1.0,0.9,0.001
177,0.3142366111278534,0.41239219903945923,1.0,0.9,0.001
178,0.31422823667526245,0.41228529810905457,1.0,0.89,0.001
179,0.31421855092048645,0.4123133718967438,1.0,0.9,0.001
180,0.31420791149139404,0.41227781772613525,1.0,0.89,0.001
181,0.31419873237609863,0.41241341829299927,1.0,0.9,0.001
182,0.31419023871421814,0.4124027490615845,1.0,0.9,0.001
183,0.31418195366859436,0.4122457504272461,1.0,0.9,0.001
184,0.3141724765300751,0.41226404905319214,1.0,0.89,0.001
185,0.31416353583335876,0.4122462570667267,1.0,0.9,0.001
186,0.3141551613807678,0.41226524114608765,1.0,0.9,0.001
187,0.3141466975212097,0.4121479094028473,1.0,0.9,0.001
188,0.3141384422779083,0.4121516942977905,1.0,0.9,0.001
189,0.3141304552555084,0.4121704399585724,1.0,0.9,0.001
190,0.31412261724472046,0.4121301770210266,1.0,0.9,0.001
191,0.31411466002464294,0.4119396507740021,1.0,0.9,0.001
192,0.31410759687423706,0.4120368957519531,1.0,0.9,0.001
193,0.31410062313079834,0.4119562804698944,1.0,0.89,0.001
194,0.3140926659107208,0.4122045040130615,1.0,0.9,0.001
195,0.31408408284187317,0.4121391773223877,1.0,0.9,0.001
196,0.3140771985054016,0.4119253158569336,1.0,0.9,0.001
197,0.3140711188316345,0.41192707419395447,1.0,0.9,0.001
198,0.3140633702278137,0.4119065999984741,1.0,0.9,0.001
199,0.314055472612381,0.41208571195602417,1.0,0.9,0.001
200,0.3140486180782318,0.41212573647499084,1.0,0.9,0.001
201,0.31404274702072144,0.41195571422576904,1.0,0.9,0.001
202,0.31403616070747375,0.4118492007255554,1.0,0.9,0.001
203,0.3140285313129425,0.41175487637519836,1.0,0.89,0.001
204,0.314021497964859,0.4117986559867859,1.0,0.89,0.001
205,0.31401604413986206,0.4119405448436737,1.0,0.9,0.001
206,0.31400972604751587,0.41181907057762146,1.0,0.9,0.001
207,0.3140028119087219,0.4116915464401245,1.0,0.9,0.001
208,0.3139960467815399,0.4117082357406616,1.0,0.9,0.001
209,0.3139910399913788,0.41173842549324036,1.0,0.9,0.001
210,0.31398510932922363,0.41180115938186646,1.0,0.9,0.001
211,0.31397852301597595,0.4116728901863098,1.0,0.9,0.001
212,0.3139724135398865,0.41160571575164795,1.0,0.9,0.001
213,0.3139672577381134,0.41162383556365967,1.0,0.9,0.001
214,0.3139611482620239,0.41155189275741577,1.0,0.9,0.001
215,0.3139554262161255,0.41164085268974304,1.0,0.9,0.001
216,0.31394997239112854,0.4116480350494385,1.0,0.9,0.001
217,0.3139447867870331,0.41149190068244934,1.0,0.9,0.001
218,0.3139393627643585,0.41161003708839417,1.0,0.89,0.001
219,0.31393393874168396,0.4115874469280243,1.0,0.9,0.001
220,0.31392884254455566,0.4114886224269867,1.0,0.9,0.001
221,0.3139241337776184,0.41154423356056213,1.0,0.9,0.001
222,0.31391867995262146,0.41144537925720215,1.0,0.9,0.001
223,0.3139131963253021,0.41149449348449707,1.0,0.9,0.001
224,0.3139083981513977,0.4114951193332672,1.0,0.9,0.001
225,0.3139033615589142,0.41130343079566956,1.0,0.9,0.001
226,0.31389832496643066,0.4112982451915741,1.0,0.89,0.001
227,0.31389328837394714,0.4112624228000641,1.0,0.9,0.001
228,0.3138889670372009,0.4111934006214142,1.0,0.9,0.001
229,0.31388476490974426,0.4112943410873413,1.0,0.9,0.001
230,0.31387951970100403,0.4112564027309418,1.0,0.9,0.001
231,0.3138746917247772,0.41124576330184937,1.0,0.9,0.001
232,0.3138708174228668,0.41128599643707275,1.0,0.9,0.001
233,0.31386664509773254,0.41119134426116943,1.0,0.9,0.001
234,0.31386154890060425,0.4112260341644287,1.0,0.9,0.001
235,0.31385672092437744,0.41113290190696716,1.0,0.9,0.001
236,0.31385308504104614,0.41104286909103394,1.0,0.9,0.001
237,0.31384968757629395,0.41114190220832825,1.0,0.9,0.001
238,0.3138444423675537,0.41100627183914185,1.0,0.9,0.001
239,0.3138396441936493,0.41101881861686707,1.0,0.9,0.001
240,0.31383654475212097,0.41114842891693115,1.0,0.9,0.001
241,0.3138318955898285,0.4109998345375061,1.0,0.9,0.001
242,0.3138272166252136,0.411062091588974,1.0,0.9,0.001
243,0.31382399797439575,0.41100120544433594,1.0,0.9,0.001
244,0.31381967663764954,0.4109572470188141,1.0,0.9,0.001
245,0.31381505727767944,0.4109939932823181,1.0,0.9,0.001
246,0.31381121277809143,0.41098037362098694,1.0,0.9,0.001
247,0.3138079345226288,0.41078072786331177,1.0,0.9,0.001
248,0.3138042092323303,0.4108408987522125,1.0,0.9,0.001
249,0.3137998878955841,0.410788893699646,1.0,0.9,0.001
250,0.3137962520122528,0.41091975569725037,1.0,0.9,0.001
251,0.313792884349823,0.4110492765903473,1.0,0.9,0.001
252,0.31378912925720215,0.4110020101070404,1.0,0.9,0.001
253,0.31378525495529175,0.41100266575813293,1.0,0.9,0.001
254,0.3137821555137634,0.4109083116054535,1.0,0.9,0.001
255,0.31377899646759033,0.4108489155769348,1.0,0.9,0.001
256,0.31377506256103516,0.4108777642250061,1.0,0.9,0.001
257,0.3137713670730591,0.4108718931674957,1.0,0.9,0.001
258,0.3137684464454651,0.4109465479850769,1.0,0.9,0.001
259,0.31376489996910095,0.4109842777252197,1.0,0.9,0.001
260,0.31376126408576965,0.4108935296535492,1.0,0.9,0.001
261,0.31375792622566223,0.41084298491477966,1.0,0.9,0.001
262,0.3137547969818115,0.41093745827674866,1.0,0.89,0.001
263,0.31375160813331604,0.41103920340538025,1.0,0.9,0.001
264,0.31374824047088623,0.4110502004623413,1.0,0.89,0.001
265,0.3137453496456146,0.4109096825122833,1.0,0.9,0.001
266,0.3137420117855072,0.4108138382434845,1.0,0.89,0.001
267,0.3137386441230774,0.41091930866241455,1.0,0.9,0.001
268,0.3137356638908386,0.4109077453613281,1.0,0.89,0.001
269,0.3137325942516327,0.41087549924850464,1.0,0.89,0.001
270,0.3137296438217163,0.41089537739753723,1.0,0.9,0.001
271,0.3137267827987671,0.4109116792678833,1.0,0.89,0.001
272,0.3137238919734955,0.4109446406364441,1.0,0.9,0.001
273,0.31372106075286865,0.4109594225883484,1.0,0.89,0.001
274,0.3137180507183075,0.4109247624874115,1.0,0.89,0.001
275,0.3137151598930359,0.41085711121559143,1.0,0.89,0.001
276,0.313712477684021,0.41086918115615845,1.0,0.9,0.001
277,0.3137103319168091,0.41098299622535706,1.0,0.89,0.001
278,0.31370779871940613,0.4109410345554352,1.0,0.9,0.001
279,0.3137046992778778,0.41105717420578003,1.0,0.89,0.001
280,0.3137015104293823,0.4109703004360199,1.0,0.89,0.001
281,0.31369873881340027,0.4110415279865265,1.0,0.89,0.001
282,0.3136962652206421,0.4109788239002228,1.0,0.89,0.001
283,0.3136935830116272,0.41087496280670166,1.0,0.89,0.001
284,0.3136906623840332,0.4109691381454468,1.0,0.89,0.001
285,0.31368836760520935,0.4109906852245331,1.0,0.89,0.001
286,0.3136865794658661,0.4109325408935547,1.0,0.89,0.001
287,0.3136835992336273,0.4110712707042694,1.0,0.89,0.001
288,0.3136804699897766,0.410958468914032,1.0,0.89,0.001
289,0.3136778771877289,0.41089606285095215,1.0,0.89,0.001
290,0.3136754035949707,0.41085246205329895,1.0,0.89,0.001
291,0.3136727511882782,0.4109027087688446,1.0,0.89,0.001
292,0.31367039680480957,0.4109606444835663,1.0,0.89,0.001
293,0.31366801261901855,0.4110566973686218,1.0,0.89,0.001
294,0.31366562843322754,0.411030650138855,1.0,0.89,0.001
295,0.3136630952358246,0.41092154383659363,1.0,0.89,0.001
296,0.3136608302593231,0.41096943616867065,1.0,0.89,0.001
297,0.3136584758758545,0.4109905958175659,1.0,0.89,0.001
298,0.31365618109703064,0.41096365451812744,1.0,0.89,0.001
299,0.3136537969112396,0.41093960404396057,1.0,0.89,0.001
300,0.31365153193473816,0.4109668731689453,1.0,0.89,0.001
301,0.31364914774894714,0.4109669625759125,1.0,0.89,0.001
302,0.31364676356315613,0.4109511077404022,1.0,0.89,0.001
303,0.31364479660987854,0.4108940362930298,1.0,0.89,0.001
304,0.3136424124240875,0.4109194576740265,1.0,0.89,0.001
305,0.31364017724990845,0.41095390915870667,1.0,0.89,0.001
306,0.31363797187805176,0.41099151968955994,1.0,0.89,0.001
307,0.3136359751224518,0.411024808883667,1.0,0.89,0.001
308,0.3136339485645294,0.41103771328926086,1.0,0.89,0.001
309,0.3136318624019623,0.410945862531662,1.0,0.89,0.001
310,0.31362980604171753,0.41087523102760315,1.0,0.89,0.001
311,0.3136276602745056,0.4109145998954773,1.0,0.88,0.001
312,0.3136257827281952,0.4109894931316376,1.0,0.89,0.001
313,0.31362384557724,0.4110483229160309,1.0,0.89,0.001
314,0.31362175941467285,0.41102126240730286,1.0,0.89,0.001
315,0.3136197626590729,0.41098231077194214,1.0,0.89,0.001
316,0.3136179447174072,0.41091445088386536,1.0,0.89,0.001
317,0.3136162757873535,0.4109176993370056,1.0,0.89,0.001
318,0.31361427903175354,0.4108412265777588,1.0,0.89,0.001
319,0.31361234188079834,0.4108782112598419,1.0,0.89,0.001
320,0.31361067295074463,0.4109419584274292,1.0,0.89,0.001
321,0.31360894441604614,0.4110226333141327,1.0,0.89,0.001
322,0.31360700726509094,0.41110560297966003,1.0,0.89,0.001
323,0.3136049509048462,0.4109310507774353,1.0,0.89,0.001
324,0.31360313296318054,0.4109497368335724,1.0,0.88,0.001
325,0.3136022090911865,0.4109800457954407,1.0,0.89,0.001
326,0.31359994411468506,0.4108858108520508,1.0,0.89,0.001
327,0.3135976493358612,0.4110516309738159,1.0,0.89,0.001
328,0.3135967552661896,0.4110427498817444,1.0,0.89,0.001
329,0.31359487771987915,0.410833477973938,1.0,0.89,0.001
330,0.3135925233364105,0.4109569489955902,1.0,0.88,0.001
331,0.31359148025512695,0.410927951335907,1.0,0.89,0.001
332,0.31359004974365234,0.41089946031570435,1.0,0.89,0.001
333,0.31358763575553894,0.41090840101242065,1.0,0.89,0.001
334,0.3135857880115509,0.41074615716934204,1.0,0.89,0.001
335,0.31358402967453003,0.4108458459377289,1.0,0.88,0.001
336,0.3135825991630554,0.4108806550502777,1.0,0.89,0.001
337,0.3135806918144226,0.41084274649620056,1.0,0.89,0.001
338,0.31357911229133606,0.41089075803756714,1.0,0.89,0.001
339,0.3135775923728943,0.4108703136444092,1.0,0.89,0.001
340,0.31357601284980774,0.4108774662017822,1.0,0.88,0.001
341,0.31357449293136597,0.4109913110733032,1.0,0.89,0.001
342,0.31357285380363464,0.41090670228004456,1.0,0.89,0.001
343,0.3135712742805481,0.4108898937702179,1.0,0.89,0.001
344,0.313569575548172,0.41078513860702515,1.0,0.89,0.001
345,0.3135678768157959,0.41084566712379456,1.0,0.89,0.001
346,0.3135663866996765,0.410823792219162,1.0,0.89,0.001
347,0.3135649561882019,0.41085419058799744,1.0,0.88,0.001
348,0.31356343626976013,0.4108951985836029,1.0,0.89,0.001
349,0.31356191635131836,0.410837858915329,1.0,0.89,0.001
350,0.31356045603752136,0.4107659161090851,1.0,0.89,0.001
351,0.3135591447353363,0.4106961786746979,1.0,0.89,0.001
352,0.3135583996772766,0.41075679659843445,1.0,0.88,0.001
353,0.3135569095611572,0.4108756184577942,1.0,0.89,0.001
354,0.3135550022125244,0.410738080739975,1.0,0.89,0.001
355,0.31355321407318115,0.4107585847377777,1.0,0.89,0.001
356,0.3135523200035095,0.41072386503219604,1.0,0.89,0.001
357,0.31355124711990356,0.41066431999206543,1.0,0.89,0.001
358,0.31354913115501404,0.4107178747653961,1.0,0.89,0.001
359,0.31354790925979614,0.41062691807746887,1.0,0.89,0.001
360,0.3135468363761902,0.41059598326683044,1.0,0.89,0.001
361,0.3135451376438141,0.41079941391944885,1.0,0.88,0.001
362,0.31354355812072754,0.41075897216796875,1.0,0.89,0.001
363,0.31354257464408875,0.4106685519218445,1.0,0.89,0.001
364,0.313541054725647,0.41070738434791565,1.0,0.89,0.001
365,0.3135395348072052,0.410651296377182,1.0,0.89,0.001
366,0.3135385811328888,0.4107517898082733,1.0,0.88,0.001
367,0.3135371208190918,0.4108506739139557,1.0,0.89,0.001
368,0.31353551149368286,0.41074153780937195,1.0,0.89,0.001
369,0.3135342597961426,0.410705029964447,1.0,0.88,0.001
370,0.31353312730789185,0.4106859564781189,1.0,0.89,0.001
371,0.31353163719177246,0.4105716049671173,1.0,0.88,0.001
372,0.3135302662849426,0.4106835126876831,1.0,0.89,0.001
373,0.3135291635990143,0.41069328784942627,1.0,0.89,0.001
374,0.3135278820991516,0.4107068181037903,1.0,0.89,0.001
375,0.3135265111923218,0.4108279049396515,1.0,0.89,0.001
376,0.313525527715683,0.4107758700847626,1.0,0.89,0.001
377,0.3135244846343994,0.41067180037498474,1.0,0.89,0.001
378,0.3135230243206024,0.4107379913330078,1.0,0.88,0.001
379,0.3135215938091278,0.410776823759079,1.0,0.89,0.001
380,0.3135201930999756,0.41087642312049866,1.0,0.89,0.001
381,0.3135189712047577,0.41078633069992065,1.0,0.89,0.001
382,0.31351786851882935,0.41073092818260193,1.0,0.88,0.001
383,0.3135164678096771,0.41084399819374084,1.0,0.88,0.001
384,0.31351521611213684,0.410812109708786,1.0,0.89,0.001
385,0.31351393461227417,0.41075533628463745,1.0,0.89,0.001
386,0.31351277232170105,0.4107774496078491,1.0,0.88,0.001
387,0.3135116398334503,0.4107940196990967,1.0,0.88,0.001
388,0.31351032853126526,0.4107457101345062,1.0,0.89,0.001
389,0.31350910663604736,0.4107327163219452,1.0,0.89,0.001
390,0.313508003950119,0.4107292890548706,1.0,0.89,0.001
391,0.3135069012641907,0.41075870394706726,1.0,0.89,0.001
392,0.31350570917129517,0.41081538796424866,1.0,0.89,0.001
393,0.31350451707839966,0.4108777344226837,1.0,0.89,0.001
394,0.3135035037994385,0.4108790159225464,1.0,0.89,0.001
395,0.31350240111351013,0.4109116792678833,1.0,0.88,0.001
396,0.313501238822937,0.41084763407707214,1.0,0.89,0.001
397,0.31350016593933105,0.4108522832393646,1.0,0.88,0.001
398,0.3134991526603699,0.41082563996315,1.0,0.89,0.001
399,0.31349804997444153,0.41080009937286377,1.0,0.89,0.001
400,0.31349682807922363,0.4108450412750244,1.0,0.89,0.001
401,0.313495934009552,0.4108166992664337,1.0,0.89,0.001
402,0.31349486112594604,0.4108055531978607,1.0,0.88,0.001
403,0.3134937286376953,0.4108966886997223,1.0,0.89,0.001
404,0.3134927451610565,0.4108688235282898,1.0,0.89,0.001
405,0.31349170207977295,0.4108402729034424,1.0,0.89,0.001
406,0.3134905993938446,0.41084086894989014,1.0,0.89,0.001
407,0.31348955631256104,0.41083675622940063,1.0,0.89,0.001
408,0.31348851323127747,0.4108436703681946,1.0,0.89,0.001
409,0.3134874403476715,0.41080230474472046,1.0,0.89,0.001
410,0.31348657608032227,0.4107588231563568,1.0,0.89,0.001
411,0.3134855628013611,0.4107915461063385,1.0,0.88,0.001
412,0.31348469853401184,0.4109201431274414,1.0,0.89,0.001
413,0.3134836256504059,0.4109107255935669,1.0,0.89,0.001
414,0.3134826719760895,0.41086480021476746,1.0,0.89,0.001
415,0.31348177790641785,0.41078031063079834,1.0,0.89,0.001
416,0.3134807348251343,0.4108072519302368,1.0,0.89,0.001
417,0.3134799003601074,0.4108731150627136,1.0,0.89,0.001
418,0.31347891688346863,0.41085919737815857,1.0,0.89,0.001
419,0.31347787380218506,0.41089266538619995,1.0,0.89,0.001
420,0.31347692012786865,0.4108131527900696,1.0,0.89,0.001
421,0.31347596645355225,0.41078516840934753,1.0,0.89,0.001
422,0.3134750425815582,0.4108530879020691,1.0,0.89,0.001
423,0.3134740889072418,0.41083407402038574,1.0,0.89,0.001
424,0.3134732246398926,0.4108620584011078,1.0,0.89,0.001
425,0.31347236037254333,0.41084080934524536,1.0,0.89,0.001
426,0.3134715259075165,0.41079121828079224,1.0,0.89,0.001
427,0.3134706914424896,0.41081011295318604,1.0,0.88,0.001
428,0.313469797372818,0.4108690619468689,1.0,0.89,0.001
429,0.31346896290779114,0.4108898937702179,1.0,0.89,0.001
430,0.3134681284427643,0.4107886552810669,1.0,0.89,0.001
431,0.3134672939777374,0.41075828671455383,1.0,0.89,0.001
432,0.3134664297103882,0.41085171699523926,1.0,0.89,0.001
433,0.3134656250476837,0.41085949540138245,1.0,0.89,0.001
434,0.3134647309780121,0.4108646810054779,1.0,0.89,0.001
435,0.3134639263153076,0.4107581675052643,1.0,0.89,0.001
436,0.31346309185028076,0.4107666313648224,1.0,0.88,0.001
437,0.31346216797828674,0.41082268953323364,1.0,0.89,0.001
438,0.3134613633155823,0.4108406901359558,1.0,0.89,0.001
439,0.3134605288505554,0.41081929206848145,1.0,0.89,0.001
440,0.31345972418785095,0.41074085235595703,1.0,0.89,0.001
441,0.3134589195251465,0.41073185205459595,1.0,0.89,0.001
442,0.31345808506011963,0.41080737113952637,1.0,0.89,0.001
443,0.31345731019973755,0.41081929206848145,1.0,0.89,0.001
444,0.31345653533935547,0.4107259511947632,1.0,0.89,0.001
445,0.31345582008361816,0.4107038080692291,1.0,0.89,0.001
446,0.3134550154209137,0.41074684262275696,1.0,0.89,0.001
447,0.3134542405605316,0.4108450412750244,1.0,0.89,0.001
448,0.31345343589782715,0.4108615219593048,1.0,0.89,0.001
449,0.31345269083976746,0.4107728600502014,1.0,0.89,0.001
450,0.3134519159793854,0.4107038974761963,1.0,0.89,0.001
451,0.31345120072364807,0.4106943905353546,1.0,0.89,0.001
452,0.31345051527023315,0.41080179810523987,1.0,0.89,0.001
453,0.31344982981681824,0.41083455085754395,1.0,0.89,0.001
454,0.31344908475875854,0.41081902384757996,1.0,0.89,0.001
455,0.31344833970069885,0.41076210141181946,1.0,0.89,0.001
456,0.31344759464263916,0.4106922447681427,1.0,0.89,0.001
457,0.31344690918922424,0.41078290343284607,1.0,0.89,0.001
458,0.31344619393348694,0.4108806550502777,1.0,0.89,0.001
459,0.313445508480072,0.4108036160469055,1.0,0.89,0.001
460,0.3134447932243347,0.4106895923614502,1.0,0.89,0.001
461,0.31344425678253174,0.4106719493865967,1.0,0.89,0.001
462,0.31344348192214966,0.41071125864982605,1.0,0.89,0.001
463,0.3134427070617676,0.41073569655418396,1.0,0.89,0.001
464,0.31344202160835266,0.4107418954372406,1.0,0.89,0.001
465,0.31344130635261536,0.4107378125190735,1.0,0.89,0.001
466,0.31344059109687805,0.41071617603302,1.0,0.89,0.001
467,0.31343990564346313,0.41073521971702576,1.0,0.89,0.001
468,0.31343919038772583,0.41080570220947266,1.0,0.89,0.001
469,0.3134385347366333,0.41074874997138977,1.0,0.89,0.001
470,0.31343793869018555,0.41066455841064453,1.0,0.89,0.001
471,0.313437283039093,0.4107280671596527,1.0,0.89,0.001
472,0.3134365975856781,0.4107024371623993,1.0,0.89,0.001
473,0.3134359121322632,0.410719633102417,1.0,0.89,0.001
474,0.31343522667884827,0.41072794795036316,1.0,0.89,0.001
475,0.3134346306324005,0.41069862246513367,1.0,0.89,0.001
476,0.31343403458595276,0.4107109010219574,1.0,0.89,0.001
477,0.313433438539505,0.41081055998802185,1.0,0.89,0.001
478,0.3134327530860901,0.4107668399810791,1.0,0.89,0.001
479,0.31343212723731995,0.41071608662605286,1.0,0.89,0.001
480,0.31343159079551697,0.4107268452644348,1.0,0.89,0.001
481,0.31343090534210205,0.4107356369495392,1.0,0.89,0.001
482,0.31343019008636475,0.4107983410358429,1.0,0.89,0.001
483,0.31342968344688416,0.41083815693855286,1.0,0.89,0.001
484,0.31342899799346924,0.4107915461063385,1.0,0.89,0.001
485,0.31342852115631104,0.4107336103916168,1.0,0.89,0.001
486,0.31342780590057373,0.4107183516025543,1.0,0.89,0.001
487,0.3134271800518036,0.4107148051261902,1.0,0.89,0.001
488,0.3134266138076782,0.4107326567173004,1.0,0.89,0.001
489,0.31342607736587524,0.41074615716934204,1.0,0.89,0.001
490,0.31342554092407227,0.41072791814804077,1.0,0.89,0.001
491,0.31342488527297974,0.41073620319366455,1.0,0.89,0.001
492,0.313424289226532,0.4107128083705902,1.0,0.89,0.001
493,0.31342366337776184,0.41078853607177734,1.0,0.89,0.001
494,0.31342312693595886,0.4108031988143921,1.0,0.89,0.001
495,0.3134225606918335,0.4107326865196228,1.0,0.89,0.001
496,0.3134220242500305,0.41068392992019653,1.0,0.89,0.001
497,0.31342145800590515,0.41069966554641724,1.0,0.89,0.001
498,0.313420832157135,0.4106927812099457,1.0,0.89,0.001
499,0.31342029571533203,0.41070234775543213,1.0,0.89,0.001
500,0.31341978907585144,0.41070568561553955,1.0,0.89,0.001
501,0.3134191930294037,0.4107643961906433,1.0,0.89,0.001
502,0.3134186565876007,0.41076305508613586,1.0,0.89,0.001
503,0.31341809034347534,0.41074275970458984,1.0,0.89,0.001
504,0.31341755390167236,0.41068440675735474,1.0,0.89,0.001
505,0.3134170174598694,0.4107072055339813,1.0,0.89,0.001
506,0.313416451215744,0.4107522666454315,1.0,0.89,0.001
507,0.31341588497161865,0.410780668258667,1.0,0.89,0.001
508,0.31341540813446045,0.4107666015625,1.0,0.89,0.001
509,0.31341487169265747,0.4107316732406616,1.0,0.89,0.001
510,0.3134143352508545,0.41074299812316895,1.0,0.89,0.001
511,0.3134137690067291,0.4107712209224701,1.0,0.89,0.001
512,0.3134133219718933,0.4108014404773712,1.0,0.89,0.001
513,0.3134128153324127,0.4107856750488281,1.0,0.89,0.001
514,0.3134123384952545,0.41069892048835754,1.0,0.89,0.001
515,0.3134118318557739,0.41075894236564636,1.0,0.89,0.001
516,0.3134114742279053,0.41077685356140137,1.0,0.89,0.001
517,0.3134108781814575,0.4107680916786194,1.0,0.89,0.001
518,0.31341034173965454,0.4108335077762604,1.0,0.89,0.001
519,0.3134099841117859,0.4107891321182251,1.0,0.89,0.001
520,0.31340956687927246,0.41064366698265076,1.0,0.89,0.001
521,0.31340888142585754,0.41067448258399963,1.0,0.89,0.001
522,0.3134084641933441,0.4107244610786438,1.0,0.9,0.001
523,0.313408225774765,0.41077426075935364,1.0,0.89,0.001
524,0.31340745091438293,0.41090843081474304,1.0,0.89,0.001
525,0.31340715289115906,0.41081905364990234,1.0,0.89,0.001
526,0.31340667605400085,0.41065308451652527,1.0,0.89,0.001
527,0.31340596079826355,0.41072002053260803,1.0,0.9,0.001
528,0.31340569257736206,0.4107482433319092,1.0,0.89,0.001
529,0.31340497732162476,0.41066649556159973,1.0,0.89,0.001
530,0.3134046792984009,0.410750150680542,1.0,0.89,0.001
531,0.3134041726589203,0.41080227494239807,1.0,0.89,0.001
532,0.31340357661247253,0.41066688299179077,1.0,0.89,0.001
533,0.31340327858924866,0.41067370772361755,1.0,0.89,0.001
534,0.3134027123451233,0.4107775390148163,1.0,0.9,0.001
535,0.3134021461009979,0.41079071164131165,1.0,0.89,0.001
536,0.3134017884731293,0.41080451011657715,1.0,0.89,0.001
537,0.3134012818336487,0.41080543398857117,1.0,0.89,0.001
538,0.31340092420578003,0.4107685089111328,1.0,0.89,0.001
539,0.3134002983570099,0.4106103479862213,1.0,0.89,0.001
540,0.3134000897407532,0.41066619753837585,1.0,0.9,0.001
541,0.31339943408966064,0.41078829765319824,1.0,0.89,0.001
542,0.31339892745018005,0.4107677936553955,1.0,0.89,0.001
543,0.31339865922927856,0.41069984436035156,1.0,0.89,0.001
544,0.31339800357818604,0.41069939732551575,1.0,0.89,0.001
545,0.31339767575263977,0.41065868735313416,1.0,0.89,0.001
546,0.3133971691131592,0.4107165038585663,1.0,0.9,0.001
547,0.313396692276001,0.4107699692249298,1.0,0.89,0.001
548,0.31339630484580994,0.4107418358325958,1.0,0.89,0.001
549,0.31339579820632935,0.4106585383415222,1.0,0.89,0.001
550,0.3133954107761383,0.4106820821762085,1.0,0.89,0.001
551,0.31339502334594727,0.4107561409473419,1.0,0.89,0.001
552,0.31339454650878906,0.41077154874801636,1.0,0.89,0.001
553,0.31339412927627563,0.41074490547180176,1.0,0.89,0.001
554,0.313393771648407,0.41068753600120544,1.0,0.89,0.001
555,0.31339335441589355,0.41063255071640015,1.0,0.89,0.001
556,0.3133929371833801,0.41072121262550354,1.0,0.9,0.001
557,0.3133924603462219,0.41076573729515076,1.0,0.89,0.001
558,0.31339210271835327,0.4107721745967865,1.0,0.89,0.001
559,0.31339165568351746,0.4107186496257782,1.0,0.89,0.001
560,0.31339117884635925,0.4106983542442322,1.0,0.89,0.001
561,0.3133908212184906,0.41074642539024353,1.0,0.9,0.001
562,0.31339043378829956,0.41072070598602295,1.0,0.89,0.001
563,0.3133900761604309,0.4106724262237549,1.0,0.89,0.001
564,0.31338971853256226,0.41070035099983215,1.0,0.9,0.001
565,0.3133893311023712,0.4106864035129547,1.0,0.89,0.001
566,0.3133888840675354,0.41068732738494873,1.0,0.89,0.001
567,0.31338852643966675,0.4106837511062622,1.0,0.89,0.001
568,0.31338807940483093,0.41073256731033325,1.0,0.9,0.001
569,0.3133876919746399,0.41077885031700134,1.0,0.89,0.001
570,0.31338727474212646,0.41070470213890076,1.0,0.89,0.001
571,0.3133868873119354,0.4106528162956238,1.0,0.89,0.001
572,0.31338655948638916,0.41068035364151,1.0,0.89,0.001
573,0.3133862018585205,0.41073307394981384,1.0,0.89,0.001
574,0.3133857846260071,0.41070738434791565,1.0,0.89,0.001
575,0.31338539719581604,0.41078537702560425,1.0,0.89,0.001
576,0.31338509917259216,0.4107705056667328,1.0,0.89,0.001
577,0.31338468194007874,0.4106769263744354,1.0,0.89,0.001
578,0.31338438391685486,0.41074684262275696,1.0,0.9,0.001
579,0.31338393688201904,0.4107803702354431,1.0,0.9,0.001
580,0.3133835196495056,0.41072750091552734,1.0,0.89,0.001
581,0.31338322162628174,0.4106217920780182,1.0,0.89,0.001
582,0.31338274478912354,0.4107069671154022,1.0,0.89,0.001
583,0.3133825957775116,0.41071072220802307,1.0,0.9,0.001
584,0.31338217854499817,0.41070717573165894,1.0,0.9,0.001
585,0.3133816123008728,0.41077500581741333,1.0,0.89,0.001
586,0.3133814036846161,0.4107261300086975,1.0,0.89,0.001
587,0.3133809268474579,0.41054877638816833,1.0,0.9,0.001
588,0.3133806884288788,0.4106083810329437,1.0,0.89,0.001
589,0.3133803606033325,0.41078972816467285,1.0,0.9,0.001
590,0.3133798837661743,0.41077515482902527,1.0,0.9,0.001
591,0.3133796453475952,0.410777747631073,1.0,0.89,0.001
592,0.3133791983127594,0.4107576310634613,1.0,0.89,0.001
593,0.31337884068489075,0.4105907678604126,1.0,0.89,0.001
594,0.31337863206863403,0.41061022877693176,1.0,0.9,0.001
595,0.31337812542915344,0.410705029964447,1.0,0.9,0.001
596,0.31337788701057434,0.4107050597667694,1.0,0.89,0.001
597,0.3133774995803833,0.4106348156929016,1.0,0.89,0.001
598,0.3133770525455475,0.4106793701648712,1.0,0.89,0.001
599,0.3133768141269684,0.41064193844795227,1.0,0.89,0.001
600,0.31337639689445496,0.41056036949157715,1.0,0.9,0.001
601,0.31337612867355347,0.4106447994709015,1.0,0.9,0.001
602,0.3133757710456848,0.4107343256473541,1.0,0.89,0.001
603,0.3133753836154938,0.4106529951095581,1.0,0.89,0.001
604,0.3133750557899475,0.4106345772743225,1.0,0.89,0.001
605,0.31337469816207886,0.4106920659542084,1.0,0.9,0.001
606,0.3133743703365326,0.4106219410896301,1.0,0.89,0.001
607,0.3133741319179535,0.4105963110923767,1.0,0.89,0.001
608,0.3133736848831177,0.41066431999206543,1.0,0.9,0.001
609,0.31337347626686096,0.41065266728401184,1.0,0.89,0.001
610,0.3133731484413147,0.41060763597488403,1.0,0.89,0.001
611,0.3133728504180908,0.4106011986732483,1.0,0.89,0.001
612,0.31337258219718933,0.4106014370918274,1.0,0.9,0.001
613,0.3133722245693207,0.4105704426765442,1.0,0.9,0.001
614,0.31337177753448486,0.41064825654029846,1.0,0.9,0.001
615,0.31337156891822815,0.4106173813343048,1.0,0.89,0.001
616,0.3133711516857147,0.41059449315071106,1.0,0.9,0.001
617,0.31337085366249084,0.4107367694377899,1.0,0.89,0.001
618,0.31337061524391174,0.4106323719024658,1.0,0.9,0.001
619,0.31337040662765503,0.4106617867946625,1.0,0.9,0.001
620,0.3133699893951416,0.4106077551841736,1.0,0.89,0.001
621,0.31336984038352966,0.4105062782764435,1.0,0.9,0.001
622,0.3133695721626282,0.41045981645584106,1.0,0.9,0.001
623,0.3133690357208252,0.4106501042842865,1.0,0.89,0.001
624,0.31336918473243713,0.41065120697021484,1.0,0.9,0.001
625,0.3133685290813446,0.4104914963245392,1.0,0.9,0.001
626,0.3133682310581207,0.4106411337852478,1.0,0.89,0.001
627,0.3133682906627655,0.41060343384742737,1.0,0.9,0.001
628,0.3133675754070282,0.41043785214424133,1.0,0.9,0.001
629,0.3133673369884491,0.4105703830718994,1.0,0.89,0.001
630,0.3133671283721924,0.4107412099838257,1.0,0.9,0.001
631,0.3133666515350342,0.4105806052684784,1.0,0.89,0.001
632,0.3133665919303894,0.4105469882488251,1.0,0.9,0.001
633,0.3133660554885864,0.4105934500694275,1.0,0.9,0.001
634,0.31336578726768494,0.4104984700679779,1.0,0.9,0.001
635,0.3133655786514282,0.4104825258255005,1.0,0.9,0.001
636,0.31336510181427,0.41058671474456787,1.0,0.89,0.001
637,0.31336510181427,0.4105454385280609,1.0,0.9,0.001
638,0.31336477398872375,0.41051143407821655,1.0,0.9,0.001
639,0.31336432695388794,0.4105476140975952,1.0,0.89,0.001
640,0.313364177942276,0.41042792797088623,1.0,0.9,0.001
641,0.31336379051208496,0.4103904962539673,1.0,0.9,0.001
642,0.31336352229118347,0.4106582999229431,1.0,0.9,0.001
643,0.313363254070282,0.41073763370513916,1.0,0.89,0.001
644,0.3133629560470581,0.4105919301509857,1.0,0.89,0.001
645,0.3133627474308014,0.41050776839256287,1.0,0.89,0.001
646,0.3133624196052551,0.4105861783027649,1.0,0.9,0.001
647,0.3133622407913208,0.41062411665916443,1.0,0.9,0.001
648,0.31336191296577454,0.41060933470726013,1.0,0.9,0.001
649,0.3133615553379059,0.41064292192459106,1.0,0.89,0.001
650,0.31336140632629395,0.4105455279350281,1.0,0.89,0.001
651,0.3133610188961029,0.4104088544845581,1.0,0.9,0.001
652,0.3133608102798462,0.410541832447052,1.0,0.9,0.001
653,0.31336045265197754,0.41067516803741455,1.0,0.9,0.001
654,0.3133603036403656,0.41056349873542786,1.0,0.9,0.001
655,0.31335997581481934,0.4104216694831848,1.0,0.9,0.001
656,0.31335967779159546,0.41055333614349365,1.0,0.9,0.001
657,0.31335949897766113,0.41050273180007935,1.0,0.9,0.001
658,0.3133591413497925,0.4104575216770172,1.0,0.9,0.001
659,0.31335896253585815,0.41060587763786316,1.0,0.9,0.001
660,0.31335869431495667,0.41063132882118225,1.0,0.9,0.001
661,0.3133583962917328,0.41039803624153137,1.0,0.89,0.001
662,0.31335827708244324,0.41040074825286865,1.0,0.9,0.001
663,0.3133579194545746,0.41055598855018616,1.0,0.9,0.001
664,0.3133575916290283,0.41052043437957764,1.0,0.9,0.001
665,0.31335732340812683,0.4104999601840973,1.0,0.9,0.001
666,0.3133571147918701,0.410603791475296,1.0,0.89,0.001
667,0.31335684657096863,0.410535991191864,1.0,0.9,0.001
668,0.3133566379547119,0.4104972779750824,1.0,0.9,0.001
669,0.3133563697338104,0.4105971157550812,1.0,0.9,0.001
670,0.31335610151290894,0.410457044839859,1.0,0.9,0.001
671,0.31335583329200745,0.4104062020778656,1.0,0.9,0.001
672,0.3133556842803955,0.41046246886253357,1.0,0.9,0.001
673,0.313355416059494,0.4105645418167114,1.0,0.9,0.001
674,0.3133551776409149,0.41051003336906433,1.0,0.9,0.001
675,0.3133549988269806,0.4105182886123657,1.0,0.9,0.001
676,0.3133546710014343,0.4104638397693634,1.0,0.89,0.001
677,0.31335440278053284,0.41036131978034973,1.0,0.9,0.001
678,0.3133541941642761,0.4104421138763428,1.0,0.9,0.001
679,0.31335392594337463,0.4105442464351654,1.0,0.9,0.001
680,0.31335365772247314,0.4104866683483124,1.0,0.9,0.0007937005259840996
681,0.31335344910621643,0.410476416349411,1.0,0.9,0.0007937005259840996
682,0.3133532404899597,0.41040730476379395,1.0,0.9,0.0007937005259840996
683,0.313353031873703,0.41037940979003906,1.0,0.9,0.0007937005259840996
684,0.3133528232574463,0.4104095697402954,1.0,0.9,0.0007937005259840996
685,0.31335264444351196,0.4103983938694,1.0,0.9,0.0007937005259840996
686,0.31335246562957764,0.41041576862335205,1.0,0.9,0.0007937005259840996
687,0.31335222721099854,0.41046130657196045,1.0,0.9,0.0007937005259840996
688,0.3133520781993866,0.4104330837726593,1.0,0.9,0.0007937005259840996
689,0.3133518695831299,0.41034576296806335,1.0,0.9,0.0007937005259840996
690,0.31335166096687317,0.41036346554756165,1.0,0.9,0.0007937005259840996
691,0.31335145235061646,0.4103931188583374,1.0,0.9,0.0007937005259840996
692,0.3133513033390045,0.41045844554901123,1.0,0.9,0.0007937005259840996
693,0.3133510947227478,0.41040533781051636,1.0,0.9,0.0007937005259840996
694,0.31335097551345825,0.4104296863079071,1.0,0.9,0.0007937005259840996
695,0.3133507966995239,0.4104950428009033,1.0,0.9,0.0007937005259840996
696,0.3133505880832672,0.4104125201702118,1.0,0.9,0.0007937005259840996
697,0.3133503794670105,0.41035738587379456,1.0,0.9,0.0007937005259840996
698,0.31335023045539856,0.4103845953941345,1.0,0.9,0.0007937005259840996
699,0.31335005164146423,0.4103938341140747,1.0,0.9,0.0007937005259840996
700,0.3133499026298523,0.4104141891002655,1.0,0.9,0.0007937005259840996
701,0.3133496940135956,0.4104596972465515,1.0,0.9,0.0007937005259840996
702,0.31334948539733887,0.4104333519935608,1.0,0.9,0.0007937005259840996
703,0.31334930658340454,0.41038212180137634,1.0,0.9,0.0007937005259840996
704,0.3133491575717926,0.41035011410713196,1.0,0.9,0.0007937005259840996
705,0.3133489787578583,0.4103718101978302,1.0,0.9,0.0007937005259840996
706,0.31334879994392395,0.4103987514972687,1.0,0.9,0.0007937005259840996
707,0.3133486807346344,0.4104370176792145,1.0,0.9,0.0007937005259840996
708,0.3133484721183777,0.4103706479072571,1.0,0.9,0.0007937005259840996
709,0.31334826350212097,0.41038790345191956,1.0,0.9,0.0007937005259840996
710,0.31334811449050903,0.41038599610328674,1.0,0.9,0.0007937005259840996
711,0.3133479058742523,0.41040363907814026,1.0,0.9,0.0007937005259840996
712,0.3133477568626404,0.4103948175907135,1.0,0.9,0.0007937005259840996
713,0.31334757804870605,0.41040000319480896,1.0,0.9,0.0007937005259840996
714,0.3133474290370941,0.4103797674179077,1.0,0.9,0.0007937005259840996
715,0.3133472502231598,0.41037625074386597,1.0,0.9,0.0007937005259840996
716,0.3133470416069031,0.4103931784629822,1.0,0.9,0.0007937005259840996
717,0.31334689259529114,0.41043755412101746,1.0,0.9,0.0007937005259840996
718,0.3133467435836792,0.4103931486606598,1.0,0.9,0.0007937005259840996
719,0.3133465349674225,0.4103410840034485,1.0,0.9,0.0007937005259840996
720,0.31334638595581055,0.41034775972366333,1.0,0.9,0.0007937005259840996
721,0.3133462071418762,0.4103505611419678,1.0,0.9,0.0007937005259840996
722,0.3133460581302643,0.4103761911392212,1.0,0.9,0.0007937005259840996
723,0.31334587931632996,0.41038215160369873,1.0,0.9,0.0007937005259840996
724,0.31334570050239563,0.4103989005088806,1.0,0.9,0.0007937005259840996
725,0.3133455216884613,0.4103547930717468,1.0,0.9,0.0007937005259840996
726,0.313345342874527,0.4103587865829468,1.0,0.9,0.0007937005259840996
727,0.31334519386291504,0.41037338972091675,1.0,0.9,0.0007937005259840996
728,0.3133450746536255,0.41034653782844543,1.0,0.9,0.0007937005259840996
729,0.31334489583969116,0.4103854298591614,1.0,0.9,0.0007937005259840996
730,0.31334468722343445,0.4103968143463135,1.0,0.9,0.0007937005259840996
731,0.3133445084095001,0.4104011058807373,1.0,0.9,0.0007937005259840996
732,0.31334438920021057,0.41035401821136475,1.0,0.9,0.0007937005259840996
733,0.31334424018859863,0.4103253185749054,1.0,0.9,0.0007937005259840996
734,0.3133440315723419,0.41032829880714417,1.0,0.9,0.0007937005259840996
735,0.31334388256073,0.41031017899513245,1.0,0.9,0.0007937005259840996
736,0.31334367394447327,0.4103536903858185,1.0,0.9,0.0007937005259840996
737,0.3133435547351837,0.4103996753692627,1.0,0.9,0.0007937005259840996
738,0.31334343552589417,0.41039368510246277,1.0,0.9,0.0007937005259840996
739,0.31334322690963745,0.4103699028491974,1.0,0.9,0.0007937005259840996
740,0.3133430778980255,0.41033419966697693,1.0,0.9,0.0007937005259840996
741,0.3133429288864136,0.4103213846683502,1.0,0.9,0.0007937005259840996
742,0.31334275007247925,0.41027867794036865,1.0,0.9,0.0007937005259840996
743,0.3133426606655121,0.4103234112262726,1.0,0.9,0.0007937005259840996
744,0.31334248185157776,0.41022828221321106,1.0,0.9,0.0007937005259840996
745,0.3133423328399658,0.41028258204460144,1.0,0.9,0.0007937005259840996
746,0.3133421242237091,0.4104081094264984,1.0,0.9,0.0007937005259840996
747,0.31334200501441956,0.4103735089302063,1.0,0.9,0.0007937005259840996
748,0.31334182620048523,0.41037964820861816,1.0,0.9,0.0007937005259840996
749,0.3133417069911957,0.41046541929244995,1.0,0.9,0.0007937005259840996
750,0.31334152817726135,0.4104279577732086,1.0,0.9,0.0007937005259840996
751,0.3133414089679718,0.41037964820861816,1.0,0.9,0.0007937005259840996
752,0.3133412003517151,0.4103863537311554,1.0,0.9,0.0007937005259840996
753,0.31334105134010315,0.41035962104797363,1.0,0.9,0.0007937005259840996
754,0.3133409023284912,0.41041576862335205,1.0,0.9,0.0007937005259840996
755,0.31334078311920166,0.4103398025035858,1.0,0.9,0.0007937005259840996
756,0.31334057450294495,0.4102434515953064,1.0,0.9,0.0007937005259840996
757,0.31334054470062256,0.410370796918869,1.0,0.9,0.0007937005259840996
758,0.313340425491333,0.41035008430480957,1.0,0.9,0.0007937005259840996
759,0.31334012746810913,0.4103025197982788,1.0,0.9,0.0007937005259840996
760,0.31334006786346436,0.41029682755470276,1.0,0.9,0.0007937005259840996
761,0.31333982944488525,0.4104021191596985,1.0,0.9,0.0007937005259840996
762,0.3133397102355957,0.41039809584617615,1.0,0.9,0.0007937005259840996
763,0.31333959102630615,0.4102715253829956,1.0,0.9,0.0007937005259840996
764,0.3133395314216614,0.4102909564971924,1.0,0.9,0.0007937005259840996
765,0.3133392930030823,0.41036251187324524,1.0,0.9,0.0007937005259840996
766,0.31333914399147034,0.41031497716903687,1.0,0.9,0.0007937005259840996
767,0.313338965177536,0.41031670570373535,1.0,0.9,0.0007937005259840996
768,0.3133388161659241,0.4103633761405945,1.0,0.9,0.0007937005259840996
769,0.31333866715431213,0.4103332459926605,1.0,0.9,0.0007937005259840996
770,0.3133384585380554,0.4102932810783386,1.0,0.9,0.0007937005259840996
771,0.31333833932876587,0.4103129506111145,1.0,0.9,0.0007937005259840996
772,0.31333819031715393,0.4102919101715088,1.0,0.9,0.0007937005259840996
773,0.31333810091018677,0.41027095913887024,1.0,0.9,0.0007937005259840996
774,0.3133379817008972,0.41031157970428467,1.0,0.9,0.0007937005259840996
775,0.3133377730846405,0.4103681147098541,1.0,0.9,0.0007937005259840996
776,0.3133375942707062,0.41028350591659546,1.0,0.9,0.0007937005259840996
777,0.31333762407302856,0.41027751564979553,1.0,0.9,0.0007937005259840996
778,0.3133373260498047,0.4102891981601715,1.0,0.9,0.0007937005259840996
779,0.31333720684051514,0.4102541208267212,1.0,0.9,0.0007937005259840996
780,0.3133370876312256,0.4102489948272705,1.0,0.9,0.0007937005259840996
781,0.31333687901496887,0.4103100597858429,1.0,0.9,0.0007937005259840996
782,0.3133367598056793,0.4103577733039856,1.0,0.9,0.0007937005259840996
783,0.313336580991745,0.4102781414985657,1.0,0.9,0.0007937005259840996
784,0.31333649158477783,0.41024649143218994,1.0,0.9,0.0007937005259840996
785,0.3133363425731659,0.41030433773994446,1.0,0.9,0.0007937005259840996
786,0.31333619356155396,0.41027724742889404,1.0,0.9,0.0007937005259840996
787,0.313336044549942,0.41028350591659546,1.0,0.9,0.0006299605249474364
788,0.3133358955383301,0.410249263048172,1.0,0.9,0.0006299605249474364
789,0.31333574652671814,0.4102846086025238,1.0,0.9,0.0006299605249474364
790,0.3133355975151062,0.4102430045604706,1.0,0.9,0.0006299605249474364
791,0.3133355677127838,0.4101957082748413,1.0,0.9,0.0006299605249474364
792,0.31333547830581665,0.4102226495742798,1.0,0.9,0.0006299605249474364
793,0.3133352994918823,0.41026929020881653,1.0,0.9,0.0006299605249474364
794,0.31333523988723755,0.4103085398674011,1.0,0.9,0.0006299605249474364
795,0.313335120677948,0.4102572500705719,1.0,0.9,0.0006299605249474364
796,0.31333503127098083,0.4101758897304535,1.0,0.9,0.0006299605249474364
797,0.31333497166633606,0.4102017879486084,1.0,0.9,0.0006299605249474364
798,0.3133348226547241,0.41024550795555115,1.0,0.9,0.0006299605249474364
799,0.31333473324775696,0.4102866053581238,1.0,0.9,0.0006299605249474364
800,0.313334584236145,0.410258412361145,1.0,0.9,0.0006299605249474364
801,0.31333455443382263,0.410320520401001,1.0,0.9,0.0006299605249474364
802,0.3133343756198883,0.4103393256664276,1.0,0.9,0.0006299605249474364
803,0.31333431601524353,0.41027748584747314,1.0,0.9,0.0006299605249474364
804,0.3133341670036316,0.4102303981781006,1.0,0.9,0.0006299605249474364
805,0.3133341073989868,0.41025176644325256,1.0,0.9,0.0006299605249474364
806,0.3133339583873749,0.41030803322792053,1.0,0.9,0.0006299605249474364
807,0.3133338689804077,0.4102592170238495,1.0,0.9,0.0006299605249474364
808,0.3133337199687958,0.4102565050125122,1.0,0.9,0.0006299605249474364
809,0.3133336007595062,0.4102574586868286,1.0,0.9,0.0006299605249474364
810,0.31333354115486145,0.4102723300457001,1.0,0.9,0.0006299605249474364
811,0.3133334219455719,0.4102061986923218,1.0,0.9,0.0006299605249474364
812,0.31333333253860474,0.4101960062980652,1.0,0.9,0.0006299605249474364
813,0.3133332133293152,0.41016241908073425,1.0,0.9,0.0006299605249474364
814,0.3133331835269928,0.41019195318222046,1.0,0.9,0.0006299605249474364
815,0.3133329749107361,0.41016384959220886,1.0,0.9,0.0006299605249474364
816,0.3133329153060913,0.4102160632610321,1.0,0.9,0.0006299605249474364
817,0.31333279609680176,0.4102247357368469,1.0,0.9,0.0006299605249474364
818,0.3133326768875122,0.4101836383342743,1.0,0.9,0.0006299605249474364
819,0.31333255767822266,0.41020914912223816,1.0,0.9,0.0006299605249474364
820,0.3133324682712555,0.4101886749267578,1.0,0.9,0.0006299605249474364
821,0.31333237886428833,0.41021934151649475,1.0,0.9,0.0006299605249474364
822,0.3133322596549988,0.4101942777633667,1.0,0.9,0.0006299605249474364
823,0.31333214044570923,0.41015323996543884,1.0,0.9,0.0006299605249474364
824,0.31333208084106445,0.4101395308971405,1.0,0.9,0.0006299605249474364
825,0.3133319914340973,0.41014519333839417,1.0,0.9,0.0006299605249474364
826,0.31333184242248535,0.4101618826389313,1.0,0.9,0.0006299605249474364
827,0.3133317530155182,0.41021737456321716,1.0,0.9,0.0006299605249474364
828,0.313331663608551,0.41018325090408325,1.0,0.9,0.0006299605249474364
829,0.3133314847946167,0.4101460576057434,1.0,0.9,0.0006299605249474364
830,0.3133314847946167,0.41016867756843567,1.0,0.9,0.0006299605249474364
831,0.31333136558532715,0.410147100687027,1.0,0.9,0.0006299605249474364
832,0.3133312463760376,0.4101707935333252,1.0,0.9,0.0006299605249474364
833,0.31333115696907043,0.41020461916923523,1.0,0.9,0.0006299605249474364
834,0.31333106756210327,0.41021227836608887,1.0,0.9,0.0006299605249474364
835,0.31333091855049133,0.41024455428123474,1.0,0.9,0.0006299605249474364
836,0.31333082914352417,0.4102460443973541,1.0,0.9,0.0006299605249474364
837,0.3133307695388794,0.4102288782596588,1.0,0.9,0.0006299605249474364
838,0.31333068013191223,0.41021212935447693,1.0,0.9,0.0006299605249474364
839,0.3133305609226227,0.4102296531200409,1.0,0.9,0.0006299605249474364
840,0.31333044171333313,0.410176545381546,1.0,0.9,0.0006299605249474364
841,0.3133303225040436,0.41016876697540283,1.0,0.9,0.0006299605249474364
842,0.3133302330970764,0.41019266843795776,1.0,0.9,0.0006299605249474364
843,0.31333014369010925,0.4101940393447876,1.0,0.9,0.0006299605249474364
844,0.3133300542831421,0.41018226742744446,1.0,0.9,0.0006299605249474364
845,0.31332993507385254,0.41019517183303833,1.0,0.9,0.0006299605249474364
846,0.3133297860622406,0.4101782739162445,1.0,0.9,0.0006299605249474364
847,0.3133297264575958,0.41017210483551025,1.0,0.9,0.0006299605249474364
848,0.31332963705062866,0.4101962149143219,1.0,0.9,0.0006299605249474364
849,0.3133295774459839,0.41021528840065,1.0,0.9,0.0006299605249474364
850,0.31332939863204956,0.41018807888031006,1.0,0.9,0.0006299605249474364
851,0.3133293092250824,0.41015514731407166,1.0,0.9,0.0006299605249474364
852,0.31332921981811523,0.4101632237434387,1.0,0.9,0.0006299605249474364
853,0.31332916021347046,0.4101930260658264,1.0,0.9,0.0006299605249474364
854,0.3133290410041809,0.4102001488208771,1.0,0.9,0.0006299605249474364
855,0.31332898139953613,0.4101976454257965,1.0,0.9,0.0006299605249474364
856,0.3133288025856018,0.41017869114875793,1.0,0.9,0.0006299605249474364
857,0.31332871317863464,0.4101649224758148,1.0,0.9,0.0006299605249474364
858,0.3133286237716675,0.41018620133399963,1.0,0.9,0.0006299605249474364
859,0.3133285641670227,0.4101596772670746,1.0,0.9,0.0006299605249474364
860,0.31332847476005554,0.41017773747444153,1.0,0.9,0.0006299605249474364
861,0.3133283853530884,0.41018733382225037,1.0,0.9,0.0006299605249474364
862,0.31332826614379883,0.4101209342479706,1.0,0.9,0.0006299605249474364
863,0.31332817673683167,0.4101405441761017,1.0,0.9,0.0006299605249474364
864,0.3133281171321869,0.41016554832458496,1.0,0.9,0.0006299605249474364
865,0.31332796812057495,0.41012775897979736,1.0,0.9,0.0006299605249474364
866,0.3133279085159302,0.41012269258499146,1.0,0.9,0.0006299605249474364
867,0.313327819108963,0.410142183303833,1.0,0.9,0.0006299605249474364
868,0.31332769989967346,0.41014736890792847,1.0,0.9,0.0006299605249474364
869,0.3133276104927063,0.4101566970348358,1.0,0.9,0.0006299605249474364
870,0.3133275508880615,0.4101891815662384,1.0,0.9,0.0006299605249474364
871,0.3133274018764496,0.4102458953857422,1.0,0.9,0.0006299605249474364
872,0.3133273124694824,0.4101296365261078,1.0,0.9,0.0006299605249474364
873,0.31332722306251526,0.41013866662979126,1.0,0.9,0.0006299605249474364
874,0.3133271336555481,0.4101882874965668,1.0,0.9,0.0006299605249474364
875,0.31332701444625854,0.41024696826934814,1.0,0.9,0.0006299605249474364
876,0.31332698464393616,0.4102746248245239,1.0,0.9,0.0006299605249474364
877,0.3133268654346466,0.41018062829971313,1.0,0.9,0.0006299605249474364
878,0.31332680583000183,0.4101523160934448,1.0,0.9,0.0006299605249474364
879,0.31332671642303467,0.41018790006637573,1.0,0.9,0.0006299605249474364
880,0.3133265972137451,0.4101950526237488,1.0,0.9,0.0006299605249474364
881,0.31332647800445557,0.4101572036743164,1.0,0.9,0.0006299605249474364
882,0.3133263885974884,0.41013801097869873,1.0,0.9,0.0006299605249474364
883,0.31332632899284363,0.41023099422454834,1.0,0.9,0.0006299605249474364
884,0.31332623958587646,0.41024675965309143,1.0,0.9,0.0006299605249474364
885,0.3133261203765869,0.4101838767528534,1.0,0.9,0.0006299605249474364
886,0.31332606077194214,0.4102190136909485,1.0,0.9,0.0006299605249474364
887,0.313325971364975,0.4102625250816345,1.0,0.9,0.0006299605249474364
888,0.31332582235336304,0.4102235436439514,1.0,0.9,0.0004999999999999997
889,0.31332576274871826,0.4101869463920593,1.0,0.9,0.0004999999999999997
890,0.3133257031440735,0.4101948142051697,1.0,0.9,0.0004999999999999997
891,0.3133256435394287,0.410223126411438,1.0,0.9,0.0004999999999999997
892,0.31332552433013916,0.41020652651786804,1.0,0.9,0.0004999999999999997
893,0.3133254945278168,0.41021233797073364,1.0,0.9,0.0004999999999999997
894,0.313325434923172,0.4102398753166199,1.0,0.9,0.0004999999999999997
895,0.31332534551620483,0.41023650765419006,1.0,0.9,0.0004999999999999997
896,0.31332525610923767,0.41023918986320496,1.0,0.9,0.0004999999999999997
897,0.3133251667022705,0.41019657254219055,1.0,0.9,0.0004999999999999997
898,0.31332510709762573,0.4101867377758026,1.0,0.9,0.0004999999999999997
899,0.31332501769065857,0.41022342443466187,1.0,0.9,0.0004999999999999997
900,0.31332501769065857,0.41020458936691284,1.0,0.9,0.0004999999999999997
901,0.3133249282836914,0.41023245453834534,1.0,0.9,0.0004999999999999997
902,0.31332483887672424,0.41020023822784424,1.0,0.9,0.0004999999999999997
903,0.3133247494697571,0.4101877212524414,1.0,0.9,0.0004999999999999997
904,0.3133246600627899,0.4102686047554016,1.0,0.9,0.0004999999999999997
905,0.31332463026046753,0.41020816564559937,1.0,0.9,0.0004999999999999997
906,0.313324511051178,0.4101727306842804,1.0,0.9,0.0004999999999999997
907,0.3133244514465332,0.41022780537605286,1.0,0.9,0.0004999999999999997
908,0.31332436203956604,0.41021889448165894,1.0,0.9,0.0004999999999999997
909,0.31332433223724365,0.41014206409454346,1.0,0.9,0.0004999999999999997
910,0.31332430243492126,0.41016268730163574,1.0,0.9,0.0004999999999999997
911,0.3133241534233093,0.41019177436828613,1.0,0.9,0.0004999999999999997
912,0.31332412362098694,0.41016536951065063,1.0,0.9,0.0004999999999999997
913,0.3133240342140198,0.41023728251457214,1.0,0.9,0.0004999999999999997
914,0.3133239150047302,0.4102539122104645,1.0,0.9,0.0004999999999999997
915,0.31332385540008545,0.4102725684642792,1.0,0.9,0.0004999999999999997
916,0.31332388520240784,0.41021019220352173,1.0,0.9,0.0004999999999999997
917,0.3133237361907959,0.41020143032073975,1.0,0.9,0.0004999999999999997
918,0.3133237063884735,0.41014713048934937,1.0,0.9,0.0004999999999999997
919,0.31332361698150635,0.41019484400749207,1.0,0.9,0.0004999999999999997
920,0.3133235573768616,0.4103023409843445,1.0,0.9,0.0004999999999999997
921,0.3133235275745392,0.41023021936416626,1.0,0.9,0.0004999999999999997
922,0.31332340836524963,0.4102345407009125,1.0,0.9,0.0004999999999999997
923,0.31332331895828247,0.4102960228919983,1.0,0.9,0.0004999999999999997
924,0.3133232891559601,0.41021212935447693,1.0,0.9,0.0004999999999999997
925,0.3133231997489929,0.41011133790016174,1.0,0.9,0.0004999999999999997
926,0.3133231997489929,0.4101291596889496,1.0,0.9,0.0004999999999999997
927,0.31332311034202576,0.4102509021759033,1.0,0.9,0.0004999999999999997
928,0.3133229911327362,0.41021502017974854,1.0,0.9,0.0004999999999999997
929,0.31332293152809143,0.4102245271205902,1.0,0.9,0.0004999999999999997
930,0.31332287192344666,0.41025081276893616,1.0,0.9,0.0004999999999999997
931,0.3133227527141571,0.4101860523223877,1.0,0.9,0.0004999999999999997
932,0.3133227229118347,0.4101417660713196,1.0,0.9,0.0004999999999999997
933,0.31332266330718994,0.41011855006217957,1.0,0.9,0.0004999999999999997
934,0.31332263350486755,0.4101836085319519,1.0,0.9,0.0004999999999999997
935,0.313322514295578,0.41031521558761597,1.0,0.9,0.0004999999999999997
936,0.313322514295578,0.4102894067764282,1.0,0.9,0.0004999999999999997
937,0.31332239508628845,0.41021624207496643,1.0,0.9,0.0004999999999999997
938,0.31332236528396606,0.41020452976226807,1.0,0.9,0.0004999999999999997
939,0.3133222460746765,0.4102244973182678,1.0,0.9,0.0004999999999999997
940,0.31332218647003174,0.4101472496986389,1.0,0.9,0.0004999999999999997
941,0.31332215666770935,0.41010841727256775,1.0,0.9,0.0004999999999999997
942,0.3133220970630646,0.4102056920528412,1.0,0.9,0.0004999999999999997
943,0.3133220374584198,0.41021648049354553,1.0,0.9,0.0004999999999999997
944,0.313321977853775,0.41020068526268005,1.0,0.9,0.0004999999999999997
945,0.31332188844680786,0.41010621190071106,1.0,0.9,0.0004999999999999997
946,0.3133217990398407,0.410132497549057,1.0,0.9,0.0004999999999999997
947,0.31332167983055115,0.4102383553981781,1.0,0.9,0.0004999999999999997
948,0.31332167983055115,0.4101933240890503,1.0,0.9,0.0004999999999999997
949,0.31332162022590637,0.4101521372795105,1.0,0.9,0.0004999999999999997
950,0.313321590423584,0.41017821431159973,1.0,0.9,0.0004999999999999997
951,0.31332147121429443,0.41020241379737854,1.0,0.9,0.0004999999999999997
952,0.31332144141197205,0.41016268730163574,1.0,0.9,0.0004999999999999997
953,0.3133213222026825,0.4101434648036957,1.0,0.9,0.0004999999999999997
954,0.3133212625980377,0.41020041704177856,1.0,0.9,0.0004999999999999997
955,0.31332120299339294,0.41028010845184326,1.0,0.9,0.0004999999999999997
956,0.31332114338874817,0.4101767838001251,1.0,0.9,0.0004999999999999997
957,0.3133210837841034,0.41016072034835815,1.0,0.9,0.0004999999999999997
958,0.31332099437713623,0.41027045249938965,1.0,0.9,0.0004999999999999997
959,0.31332093477249146,0.4102208614349365,1.0,0.9,0.0004999999999999997
960,0.3133208155632019,0.41019055247306824,1.0,0.9,0.0004999999999999997
961,0.3133208453655243,0.41024211049079895,1.0,0.9,0.0004999999999999997
962,0.31332075595855713,0.41025376319885254,1.0,0.9,0.0004999999999999997
963,0.31332066655158997,0.4102291762828827,1.0,0.9,0.0004999999999999997
964,0.3133206367492676,0.41020211577415466,1.0,0.9,0.0004999999999999997
965,0.313320517539978,0.4102100431919098,1.0,0.9,0.0004999999999999997
966,0.31332045793533325,0.4101437032222748,1.0,0.9,0.0004999999999999997
967,0.3133203983306885,0.4102141261100769,1.0,0.9,0.0004999999999999997
968,0.3133203387260437,0.4102088510990143,1.0,0.9,0.0004999999999999997
969,0.31332024931907654,0.41019150614738464,1.0,0.9,0.0004999999999999997
970,0.31332018971443176,0.4102725088596344,1.0,0.9,0.0004999999999999997
971,0.313320130109787,0.41022804379463196,1.0,0.9,0.0004999999999999997
972,0.3133200705051422,0.4101621210575104,1.0,0.9,0.0004999999999999997
973,0.3133200407028198,0.4101497530937195,1.0,0.9,0.0004999999999999997
974,0.31331995129585266,0.4102535545825958,1.0,0.9,0.0004999999999999997
975,0.3133199214935303,0.41028037667274475,1.0,0.9,0.0004999999999999997
976,0.3133198022842407,0.41020408272743225,1.0,0.9,0.0004999999999999997
977,0.31331977248191833,0.4101668894290924,1.0,0.9,0.0004999999999999997
978,0.31331971287727356,0.4102419912815094,1.0,0.9,0.0004999999999999997
979,0.3133196532726288,0.41023772954940796,1.0,0.9,0.0004999999999999997
980,0.31331950426101685,0.4101446568965912,1.0,0.9,0.0004999999999999997
981,0.31331950426101685,0.4102146029472351,1.0,0.9,0.0004999999999999997
982,0.31331947445869446,0.4102648198604584,1.0,0.9,0.0004999999999999997
983,0.3133193850517273,0.4103005528450012,1.0,0.9,0.0004999999999999997
984,0.3133193254470825,0.410211980342865,1.0,0.9,0.0004999999999999997
985,0.31331923604011536,0.4101857841014862,1.0,0.9,0.0004999999999999997
986,0.3133191764354706,0.41021060943603516,1.0,0.9,0.0004999999999999997
987,0.3133191168308258,0.41020771861076355,1.0,0.9,0.0004999999999999997
988,0.31331902742385864,0.4101596176624298,1.0,0.9,0.0004999999999999997
989,0.31331902742385864,0.41014885902404785,1.0,0.9,0.0004999999999999997
990,0.31331896781921387,0.4102388024330139,1.0,0.9,0.0004999999999999997
991,0.3133189380168915,0.41022568941116333,1.0,0.9,0.0004999999999999997
992,0.3133188486099243,0.41019847989082336,1.0,0.9,0.0004999999999999997
993,0.3133186995983124,0.4102266728878021,1.0,0.9,0.0004999999999999997
994,0.31331866979599,0.4102204442024231,1.0,0.9,0.0004999999999999997
995,0.3133186101913452,0.4101889431476593,1.0,0.9,0.0004999999999999997
996,0.31331852078437805,0.41016247868537903,1.0,0.9,0.0004999999999999997
997,0.31331849098205566,0.4100995659828186,1.0,0.9,0.0004999999999999997
998,0.3133184313774109,0.4101940393447876,1.0,0.9,0.0004999999999999997
999,0.3133183717727661,0.4101921319961548,1.0,0.9,0.0004999999999999997
1000,0.3133183419704437,0.41015130281448364,1.0,0.9,0.0004999999999999997
1001,0.31331825256347656,0.41020333766937256,1.0,0.9,0.0004999999999999997
1002,0.3133181929588318,0.4101361334323883,1.0,0.9,0.0004999999999999997
1003,0.31331807374954224,0.41010764241218567,1.0,0.9,0.0004999999999999997
1004,0.31331804394721985,0.4102206826210022,1.0,0.9,0.0004999999999999997
1005,0.31331801414489746,0.41022175550460815,1.0,0.9,0.0004999999999999997
1006,0.3133179545402527,0.410246342420578,1.0,0.9,0.0004999999999999997
1007,0.3133178651332855,0.4101596772670746,1.0,0.9,0.0004999999999999997
1008,0.31331780552864075,0.41014280915260315,1.0,0.9,0.0004999999999999997
1009,0.31331777572631836,0.410212904214859,1.0,0.9,0.0004999999999999997
1010,0.3133176565170288,0.41017165780067444,1.0,0.9,0.0004999999999999997
1011,0.31331759691238403,0.4101896286010742,1.0,0.9,0.0004999999999999997
1012,0.31331759691238403,0.4101353585720062,1.0,0.9,0.0004999999999999997
1013,0.3133174479007721,0.41029658913612366,1.0,0.9,0.0004999999999999997
1014,0.3133174777030945,0.41020503640174866,1.0,0.9,0.0004999999999999997
1015,0.3133174180984497,0.4102174639701843,1.0,0.9,0.0004999999999999997
1016,0.31331732869148254,0.41024044156074524,1.0,0.9,0.0004999999999999997
1017,0.31331726908683777,0.4102521240711212,1.0,0.9,0.0004999999999999997
1018,0.313317209482193,0.4101751446723938,1.0,0.9,0.0004999999999999997
1019,0.3133171796798706,0.410134881734848,1.0,0.9,0.0004999999999999997
1020,0.31331706047058105,0.41022369265556335,1.0,0.9,0.0004999999999999997
1021,0.31331703066825867,0.4102613925933838,1.0,0.9,0.0004999999999999997
1022,0.3133169114589691,0.41017889976501465,1.0,0.9,0.0004999999999999997
1023,0.3133169412612915,0.4100971519947052,1.0,0.9,0.0004999999999999997
1024,0.31331685185432434,0.4102049767971039,1.0,0.9,0.0004999999999999997
1025,0.31331679224967957,0.41017019748687744,1.0,0.9,0.0004999999999999997
1026,0.3133167326450348,0.41010960936546326,1.0,0.9,0.0004999999999999997
1027,0.31331667304039,0.41013583540916443,1.0,0.9,0.0004999999999999997
1028,0.31331658363342285,0.4102720022201538,1.0,0.9,0.0004999999999999997
1029,0.31331658363342285,0.41020262241363525,1.0,0.9,0.0004999999999999997
1030,0.3133164942264557,0.4101068377494812,1.0,0.9,0.0004999999999999997
1031,0.3133164644241333,0.4101513624191284,1.0,0.9,0.0004999999999999997
1032,0.31331637501716614,0.4102517068386078,1.0,0.9,0.0004999999999999997
1033,0.31331631541252136,0.4101966917514801,1.0,0.9,0.0004999999999999997
1034,0.3133162558078766,0.41010531783103943,1.0,0.9,0.0004999999999999997
1035,0.3133162260055542,0.41017860174179077,1.0,0.9,0.0004999999999999997
1036,0.31331613659858704,0.4102356731891632,1.0,0.9,0.0004999999999999997
1037,0.3133160471916199,0.4101368188858032,1.0,0.9,0.0004999999999999997
1038,0.3133159577846527,0.41010937094688416,1.0,0.9,0.0004999999999999997
1039,0.3133159577846527,0.41016656160354614,1.0,0.9,0.0004999999999999997
1040,0.31331583857536316,0.41019830107688904,1.0,0.9,0.0004999999999999997
1041,0.31331580877304077,0.41017064452171326,1.0,0.9,0.0004999999999999997
1042,0.3133157193660736,0.41017165780067444,1.0,0.9,0.0004999999999999997
1043,0.3133157193660736,0.4102201759815216,1.0,0.9,0.0004999999999999997
1044,0.31331562995910645,0.4102473855018616,1.0,0.9,0.0004999999999999997
1045,0.31331557035446167,0.41013267636299133,1.0,0.9,0.0004999999999999997
1046,0.3133155107498169,0.41011932492256165,1.0,0.9,0.0004999999999999997
1047,0.3133154809474945,0.41016650199890137,1.0,0.9,0.0004999999999999997
1048,0.3133154809474945,0.4101405739784241,1.0,0.9,0.0004999999999999997
1049,0.31331536173820496,0.41013091802597046,1.0,0.9,0.0004999999999999997
1050,0.3133153021335602,0.41011524200439453,1.0,0.9,0.0004999999999999997
1051,0.313315212726593,0.41016101837158203,1.0,0.9,0.0004999999999999997
1052,0.31331512331962585,0.41022050380706787,1.0,0.9,0.0004999999999999997
1053,0.31331509351730347,0.4101686477661133,1.0,0.9,0.0004999999999999997
1054,0.3133150339126587,0.4102016091346741,1.0,0.9,0.0004999999999999997
1055,0.3133149743080139,0.41024458408355713,1.0,0.9,0.0004999999999999997
1056,0.31331491470336914,0.41022026538848877,1.0,0.9,0.0004999999999999997
1057,0.31331488490104675,0.4101642370223999,1.0,0.9,0.0004999999999999997
1058,0.3133147954940796,0.41008350253105164,1.0,0.9,0.00039685026299204955
1059,0.3133147060871124,0.4101482033729553,1.0,0.9,0.00039685026299204955
1060,0.31331467628479004,0.4101572036743164,1.0,0.9,0.00039685026299204955
1061,0.31331461668014526,0.4101485013961792,1.0,0.9,0.00039685026299204955
1062,0.31331464648246765,0.41008591651916504,1.0,0.9,0.00039685026299204955
1063,0.3133145570755005,0.4101632237434387,1.0,0.9,0.00039685026299204955
1064,0.3133145272731781,0.41017353534698486,1.0,0.9,0.00039685026299204955
1065,0.3133144974708557,0.4101039469242096,1.0,0.9,0.00039685026299204955
1066,0.31331440806388855,0.41007182002067566,1.0,0.9,0.00039685026299204955
1067,0.31331440806388855,0.41016390919685364,1.0,0.9,0.00039685026299204955
1068,0.31331437826156616,0.41024672985076904,1.0,0.9,0.00039685026299204955
1069,0.31331440806388855,0.4102154076099396,1.0,0.9,0.00039685026299204955
1070,0.3133142292499542,0.4101730287075043,1.0,0.9,0.00039685026299204955
1071,0.3133142292499542,0.4101437032222748,1.0,0.9,0.00039685026299204955
1072,0.31331419944763184,0.4101633131504059,1.0,0.9,0.00039685026299204955
1073,0.31331413984298706,0.4102005660533905,1.0,0.9,0.00039685026299204955
1074,0.3133141100406647,0.41015616059303284,1.0,0.9,0.00039685026299204955
1075,0.3133140206336975,0.41014236211776733,1.0,0.9,0.00039685026299204955
1076,0.3133140206336975,0.4101262390613556,1.0,0.9,0.00039685026299204955
1077,0.3133139908313751,0.41017863154411316,1.0,0.9,0.00039685026299204955
1078,0.31331393122673035,0.4101950526237488,1.0,0.9,0.00039685026299204955
1079,0.31331393122673035,0.41014042496681213,1.0,0.9,0.00039685026299204955
1080,0.3133138418197632,0.4101018011569977,1.0,0.9,0.00039685026299204955
1081,0.3133138418197632,0.41014912724494934,1.0,0.9,0.00039685026299204955
1082,0.313313752412796,0.41020679473876953,1.0,0.9,0.00039685026299204955
1083,0.31331372261047363,0.4102322459220886,1.0,0.9,0.00039685026299204955
1084,0.31331369280815125,0.41013815999031067,1.0,0.9,0.00039685026299204955
1085,0.3133136034011841,0.4100949764251709,1.0,0.9,0.00039685026299204955
1086,0.3133135139942169,0.4100964665412903,1.0,0.9,0.00039685026299204955
1087,0.3133135139942169,0.41013917326927185,1.0,0.9,0.00039685026299204955
1088,0.31331348419189453,0.41018298268318176,1.0,0.9,0.00039685026299204955
1089,0.31331339478492737,0.41017189621925354,1.0,0.9,0.00039685026299204955
1090,0.313313364982605,0.41012832522392273,1.0,0.9,0.00039685026299204955
1091,0.313313364982605,0.41017860174179077,1.0,0.9,0.00039685026299204955
1092,0.3133133053779602,0.4101649522781372,1.0,0.9,0.00039685026299204955
1093,0.3133132755756378,0.41010788083076477,1.0,0.91,0.00039685026299204955
1094,0.31331318616867065,0.4101448059082031,1.0,0.9,0.00039685026299204955
1095,0.3133131265640259,0.41018155217170715,1.0,0.9,0.00039685026299204955
1096,0.3133130967617035,0.4102204144001007,1.0,0.9,0.00039685026299204955
1097,0.3133130669593811,0.4101651906967163,1.0,0.9,0.00039685026299204955
1098,0.3133130371570587,0.41013240814208984,1.0,0.9,0.00039685026299204955
1099,0.31331297755241394,0.4102106988430023,1.0,0.9,0.00039685026299204955
1100,0.31331294775009155,0.4101383686065674,1.0,0.9,0.00039685026299204955
1101,0.3133128881454468,0.4101141095161438,1.0,0.9,0.00039685026299204955
1102,0.3133128583431244,0.4101661741733551,1.0,0.9,0.00039685026299204955
1103,0.313312828540802,0.41012656688690186,1.0,0.9,0.00039685026299204955
1104,0.3133127987384796,0.41015374660491943,1.0,0.9,0.00039685026299204955
1105,0.31331267952919006,0.4101528823375702,1.0,0.9,0.00039685026299204955
1106,0.3133126497268677,0.4101620018482208,1.0,0.9,0.00039685026299204955
1107,0.3133125901222229,0.4102187752723694,1.0,0.9,0.00039685026299204955
1108,0.31331250071525574,0.41024020314216614,1.0,0.9,0.00039685026299204955
1109,0.3133125305175781,0.41011106967926025,1.0,0.9,0.00039685026299204955
1110,0.31331247091293335,0.41010648012161255,1.0,0.9,0.00039685026299204955
1111,0.3133124113082886,0.41018348932266235,1.0,0.9,0.00039685026299204955
1112,0.3133123517036438,0.41017019748687744,1.0,0.9,0.00039685026299204955
1113,0.3133123517036438,0.4101730287075043,1.0,0.9,0.00039685026299204955
1114,0.313312292098999,0.41024670004844666,1.0,0.9,0.00039685026299204955
1115,0.31331226229667664,0.4102035462856293,1.0,0.9,0.00039685026299204955
1116,0.31331220269203186,0.41014838218688965,1.0,0.9,0.00039685026299204955
1117,0.31331220269203186,0.41009628772735596,1.0,0.9,0.00039685026299204955
1118,0.3133120834827423,0.41012513637542725,1.0,0.9,0.00039685026299204955
1119,0.3133120536804199,0.41016098856925964,1.0,0.9,0.00039685026299204955
1120,0.3133120536804199,0.41017428040504456,1.0,0.9,0.00039685026299204955
1121,0.31331196427345276,0.4101519286632538,1.0,0.9,0.00039685026299204955
1122,0.313311904668808,0.41018325090408325,1.0,0.9,0.00039685026299204955
1123,0.313311904668808,0.4102123975753784,1.0,0.9,0.00039685026299204955
1124,0.3133118748664856,0.4101904034614563,1.0,0.91,0.00039685026299204955
1125,0.31331178545951843,0.41016432642936707,1.0,0.9,0.00039685026299204955
1126,0.31331178545951843,0.41020670533180237,1.0,0.9,0.00039685026299204955
1127,0.31331175565719604,0.41017207503318787,1.0,0.9,0.00039685026299204955
1128,0.3133116662502289,0.41018182039260864,1.0,0.9,0.00039685026299204955
1129,0.3133116066455841,0.41021987795829773,1.0,0.9,0.00039685026299204955
1130,0.3133116066455841,0.4101444184780121,1.0,0.9,0.00039685026299204955
1131,0.3133115768432617,0.41011056303977966,1.0,0.9,0.00039685026299204955
1132,0.31331148743629456,0.4102025330066681,1.0,0.9,0.00039685026299204955
1133,0.31331145763397217,0.41015735268592834,1.0,0.9,0.00039685026299204955
1134,0.3133113980293274,0.4101809561252594,1.0,0.9,0.00039685026299204955
1135,0.31331130862236023,0.4101482629776001,1.0,0.9,0.00039685026299204955
1136,0.3133113384246826,0.41019994020462036,1.0,0.9,0.00039685026299204955
1137,0.31331127882003784,0.4102907180786133,1.0,0.9,0.00039685026299204955
1138,0.31331127882003784,0.41015949845314026,1.0,0.9,0.00039685026299204955
1139,0.31331121921539307,0.4101586639881134,1.0,0.9,0.00039685026299204955
1140,0.3133111894130707,0.4101939797401428,1.0,0.9,0.00039685026299204955
1141,0.3133111298084259,0.4102427363395691,1.0,0.9,0.00039685026299204955
1142,0.3133111000061035,0.41009894013404846,1.0,0.91,0.00039685026299204955
1143,0.31331107020378113,0.41016867756843567,1.0,0.9,0.00039685026299204955
1144,0.31331101059913635,0.41018640995025635,1.0,0.9,0.00039685026299204955
1145,0.3133109211921692,0.41013604402542114,1.0,0.9,0.00039685026299204955
1146,0.3133108615875244,0.4101257026195526,1.0,0.9,0.00039685026299204955
1147,0.3133108615875244,0.4101700484752655,1.0,0.9,0.00039685026299204955
1148,0.31331080198287964,0.41014498472213745,1.0,0.9,0.00039685026299204955
1149,0.31331074237823486,0.4101409912109375,1.0,0.9,0.00039685026299204955
1150,0.3133107125759125,0.41019967198371887,1.0,0.9,0.00039685026299204955
1151,0.3133107125759125,0.4101434051990509,1.0,0.9,0.00039685026299204955
1152,0.3133106529712677,0.41019824147224426,1.0,0.9,0.00039685026299204955
1153,0.3133106231689453,0.4101761281490326,1.0,0.9,0.00039685026299204955
1154,0.31331056356430054,0.4102018475532532,1.0,0.9,0.00039685026299204955
1155,0.31331053376197815,0.4101496636867523,1.0,0.9,0.00039685026299204955
1156,0.313310444355011,0.4101772606372833,1.0,0.9,0.00039685026299204955
1157,0.3133104741573334,0.4101076126098633,1.0,0.91,0.00039685026299204955
1158,0.313310444355011,0.41011902689933777,1.0,0.9,0.00039685026299204955
1159,0.3133103549480438,0.4101930856704712,1.0,0.9,0.00031498026247371797
1160,0.3133103549480438,0.41013553738594055,1.0,0.9,0.00031498026247371797
1161,0.31331026554107666,0.41009220480918884,1.0,0.9,0.00031498026247371797
1162,0.31331026554107666,0.4100896120071411,1.0,0.9,0.00031498026247371797
1163,0.3133102059364319,0.4101157486438751,1.0,0.9,0.00031498026247371797
1164,0.3133102059364319,0.4100991189479828,1.0,0.9,0.00031498026247371797
1165,0.3133101463317871,0.41014185547828674,1.0,0.9,0.00031498026247371797
1166,0.3133101165294647,0.41013094782829285,1.0,0.9,0.00031498026247371797
1167,0.31331005692481995,0.41015738248825073,1.0,0.9,0.00031498026247371797
1168,0.31331005692481995,0.41015616059303284,1.0,0.9,0.00031498026247371797
1169,0.31331005692481995,0.4100912809371948,1.0,0.9,0.00031498026247371797
1170,0.31330999732017517,0.41007712483406067,1.0,0.91,0.00031498026247371797
1171,0.313309907913208,0.4100932776927948,1.0,0.9,0.00031498026247371797
1172,0.3133099675178528,0.4101366400718689,1.0,0.9,0.00031498026247371797
1173,0.31330984830856323,0.4102034866809845,1.0,0.9,0.00031498026247371797
1174,0.31330984830856323,0.4101586639881134,1.0,0.9,0.00031498026247371797
1175,0.31330978870391846,0.41016533970832825,1.0,0.9,0.00031498026247371797
1176,0.31330978870391846,0.4101463556289673,1.0,0.9,0.00031498026247371797
1177,0.3133097290992737,0.4101512134075165,1.0,0.9,0.00031498026247371797
1178,0.3133097290992737,0.4101155400276184,1.0,0.9,0.00031498026247371797
1179,0.3133096694946289,0.41012972593307495,1.0,0.9,0.00031498026247371797
1180,0.31330960988998413,0.4101288914680481,1.0,0.9,0.00031498026247371797
1181,0.3133096396923065,0.4101133644580841,1.0,0.9,0.00031498026247371797
1182,0.31330958008766174,0.41016119718551636,1.0,0.9,0.00031498026247371797
1183,0.31330952048301697,0.410147100687027,1.0,0.9,0.00031498026247371797
1184,0.3133094906806946,0.4101170599460602,1.0,0.9,0.00031498026247371797
1185,0.3133094608783722,0.41009294986724854,1.0,0.9,0.00031498026247371797
1186,0.3133094310760498,0.4101220965385437,1.0,0.9,0.00031498026247371797
1187,0.3133094012737274,0.4101274907588959,1.0,0.9,0.00031498026247371797
1188,0.3133094012737274,0.4101063013076782,1.0,0.9,0.00031498026247371797
1189,0.31330937147140503,0.4101492166519165,1.0,0.9,0.00031498026247371797
1190,0.31330937147140503,0.4101130962371826,1.0,0.91,0.00031498026247371797
1191,0.31330928206443787,0.4100838899612427,1.0,0.9,0.00031498026247371797
1192,0.31330928206443787,0.4101099669933319,1.0,0.9,0.00031498026247371797
1193,0.3133092224597931,0.41017329692840576,1.0,0.9,0.00031498026247371797
1194,0.3133092224597931,0.41018036007881165,1.0,0.9,0.00031498026247371797
1195,0.3133091330528259,0.4101092517375946,1.0,0.9,0.00031498026247371797
1196,0.31330907344818115,0.41010770201683044,1.0,0.9,0.00031498026247371797
1197,0.31330910325050354,0.41015923023223877,1.0,0.9,0.00031498026247371797
1198,0.31330907344818115,0.41018348932266235,1.0,0.9,0.00031498026247371797
1199,0.3133090138435364,0.41015759110450745,1.0,0.9,0.00031498026247371797
1200,0.3133090138435364,0.4101790189743042,1.0,0.9,0.00031498026247371797
1201,0.313308984041214,0.41013026237487793,1.0,0.9,0.00031498026247371797
1202,0.3133089542388916,0.4102092683315277,1.0,0.9,0.00031498026247371797
1203,0.3133088946342468,0.4101581573486328,1.0,0.91,0.00031498026247371797
1204,0.31330886483192444,0.41021063923835754,1.0,0.9,0.00031498026247371797
1205,0.31330880522727966,0.4102308750152588,1.0,0.9,0.00031498026247371797
1206,0.31330883502960205,0.41016072034835815,1.0,0.9,0.00031498026247371797
1207,0.3133087754249573,0.4101347029209137,1.0,0.9,0.00031498026247371797
1208,0.3133087456226349,0.41014811396598816,1.0,0.9,0.00031498026247371797
1209,0.3133086860179901,0.4101930558681488,1.0,0.9,0.00031498026247371797
1210,0.3133086562156677,0.4101770520210266,1.0,0.9,0.00031498026247371797
1211,0.31330862641334534,0.41018468141555786,1.0,0.9,0.00031498026247371797
1212,0.31330859661102295,0.41021883487701416,1.0,0.9,0.00031498026247371797
1213,0.31330859661102295,0.41015055775642395,1.0,0.9,0.00031498026247371797
1214,0.31330856680870056,0.41020798683166504,1.0,0.9,0.00031498026247371797
1215,0.3133085370063782,0.41017264127731323,1.0,0.9,0.00031498026247371797
1216,0.3133084774017334,0.4102071523666382,1.0,0.9,0.00031498026247371797
1217,0.3133084774017334,0.4101436138153076,1.0,0.9,0.00031498026247371797
1218,0.3133084177970886,0.4102042019367218,1.0,0.9,0.00031498026247371797
1219,0.31330835819244385,0.4102322459220886,1.0,0.9,0.00031498026247371797
1220,0.31330832839012146,0.4101196527481079,1.0,0.91,0.00031498026247371797
1221,0.3133082985877991,0.41010406613349915,1.0,0.9,0.00031498026247371797
1222,0.3133082687854767,0.4101130962371826,1.0,0.9,0.00031498026247371797
1223,0.3133082389831543,0.4101817309856415,1.0,0.9,0.00031498026247371797
1224,0.3133081793785095,0.4101763665676117,1.0,0.9,0.00031498026247371797
1225,0.3133082091808319,0.41013991832733154,1.0,0.9,0.00031498026247371797
1226,0.31330811977386475,0.41012611985206604,1.0,0.9,0.00031498026247371797
1227,0.31330811977386475,0.4101620614528656,1.0,0.9,0.00031498026247371797
1228,0.31330808997154236,0.4102378785610199,1.0,0.9,0.00031498026247371797
1229,0.31330808997154236,0.4101659655570984,1.0,0.9,0.00031498026247371797
1230,0.3133080005645752,0.4101153314113617,1.0,0.91,0.00031498026247371797
1231,0.3133080005645752,0.4101281464099884,1.0,0.9,0.00031498026247371797
1232,0.31330791115760803,0.41015997529029846,1.0,0.9,0.00031498026247371797
1233,0.31330788135528564,0.41023144125938416,1.0,0.9,0.00031498026247371797
1234,0.31330788135528564,0.4101434350013733,1.0,0.9,0.00031498026247371797
1235,0.31330785155296326,0.4101096987724304,1.0,0.9,0.00031498026247371797
1236,0.31330782175064087,0.410171240568161,1.0,0.9,0.00031498026247371797
1237,0.31330782175064087,0.41020363569259644,1.0,0.9,0.00031498026247371797
1238,0.3133077919483185,0.41016921401023865,1.0,0.9,0.00031498026247371797
1239,0.3133077323436737,0.4101860821247101,1.0,0.9,0.00031498026247371797
1240,0.3133077323436737,0.41013672947883606,1.0,0.9,0.00031498026247371797
1241,0.31330767273902893,0.4101397693157196,1.0,0.9,0.00031498026247371797
1242,0.31330764293670654,0.4102046489715576,1.0,0.9,0.00031498026247371797
1243,0.31330767273902893,0.41011956334114075,1.0,0.91,0.00031498026247371797
1244,0.31330761313438416,0.41011106967926025,1.0,0.9,0.00031498026247371797
1245,0.31330758333206177,0.4101152718067169,1.0,0.9,0.00031498026247371797
1246,0.313307523727417,0.4101669192314148,1.0,0.9,0.00031498026247371797
1247,0.3133074641227722,0.4101768732070923,1.0,0.9,0.00031498026247371797
1248,0.31330740451812744,0.410150408744812,1.0,0.9,0.00031498026247371797
1249,0.31330740451812744,0.41012632846832275,1.0,0.9,0.00031498026247371797
1250,0.31330743432044983,0.41006752848625183,1.0,0.91,0.00031498026247371797
1251,0.31330737471580505,0.41017216444015503,1.0,0.9,0.00031498026247371797
1252,0.31330734491348267,0.4102138578891754,1.0,0.9,0.00031498026247371797
1253,0.31330737471580505,0.4101272225379944,1.0,0.91,0.00031498026247371797
1254,0.3133072555065155,0.41009700298309326,1.0,0.9,0.00031498026247371797
1255,0.3133072555065155,0.41017112135887146,1.0,0.9,0.00031498026247371797
1256,0.3133071959018707,0.41011539101600647,1.0,0.91,0.00031498026247371797
1257,0.3133071959018707,0.4100899398326874,1.0,0.91,0.00031498026247371797
1258,0.3133071959018707,0.4101673364639282,1.0,0.9,0.00031498026247371797
1259,0.31330710649490356,0.4101674556732178,1.0,0.9,0.00031498026247371797
1260,0.31330710649490356,0.41015398502349854,1.0,0.9,0.0002499999999999997
1261,0.3133070468902588,0.41013115644454956,1.0,0.9,0.0002499999999999997
1262,0.3133070766925812,0.41012296080589294,1.0,0.9,0.0002499999999999997
1263,0.3133070170879364,0.4100989103317261,1.0,0.9,0.0002499999999999997
1264,0.313306987285614,0.4102066159248352,1.0,0.9,0.0002499999999999997
1265,0.313306987285614,0.41018790006637573,1.0,0.9,0.0002499999999999997
1266,0.31330692768096924,0.4102116525173187,1.0,0.9,0.0002499999999999997
1267,0.31330689787864685,0.410205602645874,1.0,0.9,0.0002499999999999997
1268,0.3133068382740021,0.4102011024951935,1.0,0.9,0.0002499999999999997
1269,0.3133068382740021,0.4101507067680359,1.0,0.91,0.0002499999999999997
1270,0.3133068382740021,0.4101356267929077,1.0,0.9,0.0002499999999999997
1271,0.3133068382740021,0.41013067960739136,1.0,0.9,0.0002499999999999997
1272,0.3133067786693573,0.4101654291152954,1.0,0.9,0.0002499999999999997
1273,0.31330668926239014,0.41020187735557556,1.0,0.9,0.0002499999999999997
1274,0.3133067190647125,0.4101312756538391,1.0,0.91,0.0002499999999999997
1275,0.31330668926239014,0.4101468622684479,1.0,0.9,0.0002499999999999997
1276,0.31330668926239014,0.41022399067878723,1.0,0.9,0.0002499999999999997
1277,0.31330668926239014,0.4101760983467102,1.0,0.91,0.0002499999999999997
1278,0.31330668926239014,0.4101438522338867,1.0,0.9,0.0002499999999999997
1279,0.313306599855423,0.41015559434890747,1.0,0.9,0.0002499999999999997
1280,0.313306599855423,0.4102023243904114,1.0,0.9,0.0002499999999999997
1281,0.3133065700531006,0.41018757224082947,1.0,0.9,0.0002499999999999997
1282,0.3133065402507782,0.4101656377315521,1.0,0.9,0.0002499999999999997
1283,0.3133065104484558,0.41016334295272827,1.0,0.9,0.0002499999999999997
1284,0.3133065104484558,0.41011685132980347,1.0,0.91,0.0002499999999999997
1285,0.3133064806461334,0.41012251377105713,1.0,0.9,0.0002499999999999997
1286,0.31330645084381104,0.4102046489715576,1.0,0.9,0.0002499999999999997
1287,0.31330642104148865,0.41019126772880554,1.0,0.9,0.0002499999999999997
1288,0.31330639123916626,0.4101710617542267,1.0,0.9,0.0002499999999999997
1289,0.31330636143684387,0.41011497378349304,1.0,0.9,0.0002499999999999997
1290,0.3133063316345215,0.41020047664642334,1.0,0.9,0.0002499999999999997
1291,0.3133063316345215,0.410165011882782,1.0,0.9,0.0002499999999999997
1292,0.3133063018321991,0.4101385474205017,1.0,0.9,0.0002499999999999997
1293,0.3133063018321991,0.41016685962677,1.0,0.9,0.0002499999999999997
1294,0.31330618262290955,0.41015008091926575,1.0,0.9,0.0002499999999999997
1295,0.31330621242523193,0.4101518392562866,1.0,0.9,0.0002499999999999997
1296,0.31330618262290955,0.41013118624687195,1.0,0.9,0.0002499999999999997
1297,0.31330612301826477,0.4102006256580353,1.0,0.9,0.0002499999999999997
1298,0.31330612301826477,0.4101623594760895,1.0,0.9,0.0002499999999999997
1299,0.31330612301826477,0.41013550758361816,1.0,0.9,0.0002499999999999997
1300,0.3133060336112976,0.41016724705696106,1.0,0.9,0.0002499999999999997
1301,0.3133060336112976,0.4101701080799103,1.0,0.9,0.0002499999999999997
1302,0.31330606341362,0.4101683497428894,1.0,0.91,0.0002499999999999997
1303,0.3133060336112976,0.4101221561431885,1.0,0.9,0.0002499999999999997
1304,0.3133060038089752,0.4101010262966156,1.0,0.9,0.0002499999999999997
1305,0.31330594420433044,0.4101671576499939,1.0,0.9,0.0002499999999999997
1306,0.31330594420433044,0.4101659059524536,1.0,0.9,0.0002499999999999997
1307,0.31330594420433044,0.4101409912109375,1.0,0.9,0.0002499999999999997
1308,0.31330594420433044,0.41012081503868103,1.0,0.9,0.0002499999999999997
1309,0.3133058547973633,0.4101131558418274,1.0,0.9,0.0002499999999999997
1310,0.3133058547973633,0.4101133644580841,1.0,0.91,0.0002499999999999997
1311,0.3133057653903961,0.41014954447746277,1.0,0.9,0.0002499999999999997
1312,0.3133057653903961,0.4101121127605438,1.0,0.9,0.0002499999999999997
1313,0.3133057653903961,0.41013842821121216,1.0,0.9,0.0002499999999999997
1314,0.31330573558807373,0.41017135977745056,1.0,0.9,0.0002499999999999997
1315,0.31330570578575134,0.41013121604919434,1.0,0.9,0.0002499999999999997
1316,0.31330564618110657,0.41017332673072815,1.0,0.9,0.0002499999999999997
1317,0.31330567598342896,0.41013580560684204,1.0,0.9,0.0002499999999999997
1318,0.3133055865764618,0.4101422429084778,1.0,0.9,0.0002499999999999997
1319,0.3133055865764618,0.41015949845314026,1.0,0.9,0.0002499999999999997
1320,0.3133055567741394,0.41014403104782104,1.0,0.9,0.0002499999999999997
1321,0.313305526971817,0.4101721942424774,1.0,0.9,0.0002499999999999997
1322,0.3133055567741394,0.4101839065551758,1.0,0.9,0.0002499999999999997
1323,0.31330546736717224,0.4101523458957672,1.0,0.9,0.0002499999999999997
1324,0.31330543756484985,0.4101133346557617,1.0,0.9,0.0002499999999999997
1325,0.31330546736717224,0.410190224647522,1.0,0.9,0.0002499999999999997
1326,0.31330546736717224,0.4101097881793976,1.0,0.91,0.0002499999999999997
1327,0.31330540776252747,0.4101017415523529,1.0,0.9,0.0002499999999999997
1328,0.3133053779602051,0.4101084768772125,1.0,0.9,0.0002499999999999997
1329,0.3133053779602051,0.41017287969589233,1.0,0.9,0.0002499999999999997
1330,0.3133053481578827,0.4101766347885132,1.0,0.9,0.0002499999999999997
1331,0.3133053183555603,0.410142719745636,1.0,0.9,0.0002499999999999997
1332,0.3133052587509155,0.41010963916778564,1.0,0.9,0.0002499999999999997
1333,0.3133052885532379,0.4101521670818329,1.0,0.9,0.0002499999999999997
1334,0.31330522894859314,0.4101632237434387,1.0,0.9,0.0002499999999999997
1335,0.31330519914627075,0.4102005660533905,1.0,0.9,0.0002499999999999997
1336,0.31330519914627075,0.41017135977745056,1.0,0.9,0.0002499999999999997
1337,0.313305139541626,0.4101448059082031,1.0,0.9,0.0002499999999999997
1338,0.31330516934394836,0.4101014733314514,1.0,0.91,0.0002499999999999997
1339,0.313305139541626,0.410206139087677,1.0,0.9,0.0002499999999999997
1340,0.3133050799369812,0.4101196527481079,1.0,0.9,0.0002499999999999997
1341,0.3133051097393036,0.41012901067733765,1.0,0.9,0.0002499999999999997
1342,0.31330499053001404,0.4101150929927826,1.0,0.9,0.0002499999999999997
1343,0.31330499053001404,0.41015803813934326,1.0,0.9,0.0002499999999999997
1344,0.31330499053001404,0.41013258695602417,1.0,0.9,0.0002499999999999997
1345,0.31330499053001404,0.41014835238456726,1.0,0.9,0.0002499999999999997
1346,0.31330496072769165,0.41018566489219666,1.0,0.9,0.0002499999999999997
1347,0.31330493092536926,0.4101181924343109,1.0,0.9,0.0002499999999999997
1348,0.31330493092536926,0.41010457277297974,1.0,0.91,0.0002499999999999997
1349,0.31330493092536926,0.4101788401603699,1.0,0.9,0.0002499999999999997
1350,0.3133048713207245,0.4101048707962036,1.0,0.91,0.0002499999999999997
1351,0.3133048415184021,0.4101181924343109,1.0,0.9,0.0002499999999999997
1352,0.3133048117160797,0.41011524200439453,1.0,0.9,0.0002499999999999997
1353,0.31330475211143494,0.41006946563720703,1.0,0.91,0.0002499999999999997
1354,0.31330475211143494,0.4100967049598694,1.0,0.9,0.0002499999999999997
1355,0.31330472230911255,0.41005003452301025,1.0,0.91,0.0002499999999999997
1356,0.31330472230911255,0.41007667779922485,1.0,0.9,0.0002499999999999997
1357,0.31330469250679016,0.41017434000968933,1.0,0.9,0.0002499999999999997
1358,0.3133046329021454,0.4101833701133728,1.0,0.9,0.0002499999999999997
1359,0.3133046329021454,0.4101466238498688,1.0,0.9,0.0002499999999999997
1360,0.3133046329021454,0.41012221574783325,1.0,0.91,0.0002499999999999997
1361,0.313304603099823,0.41009071469306946,1.0,0.9,0.00019842513149602464
1362,0.3133045434951782,0.4100481867790222,1.0,0.9,0.00019842513149602464
1363,0.3133045434951782,0.4100905954837799,1.0,0.9,0.00019842513149602464
1364,0.3133045434951782,0.4100683331489563,1.0,0.9,0.00019842513149602464
1365,0.3133045434951782,0.4100724160671234,1.0,0.9,0.00019842513149602464
1366,0.31330445408821106,0.4101073145866394,1.0,0.9,0.00019842513149602464
1367,0.31330445408821106,0.4100761413574219,1.0,0.91,0.00019842513149602464
1368,0.31330445408821106,0.41011881828308105,1.0,0.9,0.00019842513149602464
1369,0.31330442428588867,0.4101298153400421,1.0,0.9,0.00019842513149602464
1370,0.3133043646812439,0.41018345952033997,1.0,0.9,0.00019842513149602464
1371,0.3133043944835663,0.4101332426071167,1.0,0.91,0.00019842513149602464
1372,0.3133043348789215,0.4100315570831299,1.0,0.91,0.00019842513149602464
1373,0.3133043646812439,0.41007229685783386,1.0,0.9,0.00019842513149602464
1374,0.3133043348789215,0.41009366512298584,1.0,0.9,0.00019842513149602464
1375,0.3133043348789215,0.41007596254348755,1.0,0.9,0.00019842513149602464
1376,0.3133043348789215,0.41008612513542175,1.0,0.9,0.00019842513149602464
1377,0.31330424547195435,0.41008132696151733,1.0,0.9,0.00019842513149602464
1378,0.31330424547195435,0.4101215600967407,1.0,0.9,0.00019842513149602464
1379,0.31330427527427673,0.41005969047546387,1.0,0.91,0.00019842513149602464
1380,0.31330418586730957,0.4100491404533386,1.0,0.9,0.00019842513149602464
1381,0.31330421566963196,0.41015106439590454,1.0,0.9,0.00019842513149602464
1382,0.3133041560649872,0.41011691093444824,1.0,0.9,0.00019842513149602464
1383,0.31330418586730957,0.41006699204444885,1.0,0.91,0.00019842513149602464
1384,0.3133041560649872,0.41006019711494446,1.0,0.91,0.00019842513149602464
1385,0.3133041262626648,0.4101003408432007,1.0,0.9,0.00019842513149602464
1386,0.3133041262626648,0.4100770056247711,1.0,0.9,0.00019842513149602464
1387,0.3133040964603424,0.41010913252830505,1.0,0.9,0.00019842513149602464
1388,0.31330403685569763,0.4101010262966156,1.0,0.9,0.00019842513149602464
1389,0.31330406665802,0.4101255536079407,1.0,0.9,0.00019842513149602464
1390,0.31330406665802,0.4101114571094513,1.0,0.9,0.00019842513149602464
1391,0.31330397725105286,0.4100397527217865,1.0,0.91,0.00019842513149602464
1392,0.31330403685569763,0.4100801944732666,1.0,0.9,0.00019842513149602464
1393,0.31330397725105286,0.4101804494857788,1.0,0.9,0.00019842513149602464
1394,0.31330394744873047,0.4101254343986511,1.0,0.9,0.00019842513149602464
1395,0.3133039176464081,0.41016268730163574,1.0,0.9,0.00019842513149602464
1396,0.3133039176464081,0.41007301211357117,1.0,0.91,0.00019842513149602464
1397,0.3133039176464081,0.41011565923690796,1.0,0.9,0.00019842513149602464
1398,0.3133039176464081,0.4101831912994385,1.0,0.9,0.00019842513149602464
1399,0.3133038580417633,0.410110741853714,1.0,0.9,0.00019842513149602464
1400,0.3133038580417633,0.4100894033908844,1.0,0.91,0.00019842513149602464
1401,0.3133038282394409,0.4100513458251953,1.0,0.91,0.00019842513149602464
1402,0.3133038282394409,0.41009247303009033,1.0,0.9,0.00019842513149602464
1403,0.31330379843711853,0.4100528061389923,1.0,0.91,0.00019842513149602464
1404,0.31330376863479614,0.4100481867790222,1.0,0.9,0.00019842513149602464
1405,0.31330370903015137,0.4100797772407532,1.0,0.9,0.00019842513149602464
1406,0.31330370903015137,0.41014179587364197,1.0,0.9,0.00019842513149602464
1407,0.31330376863479614,0.41011813282966614,1.0,0.9,0.00019842513149602464
1408,0.3133036494255066,0.4100722074508667,1.0,0.91,0.00019842513149602464
1409,0.313303679227829,0.41011956334114075,1.0,0.9,0.00019842513149602464
1410,0.3133036494255066,0.41006508469581604,1.0,0.91,0.00019842513149602464
1411,0.3133035898208618,0.41008228063583374,1.0,0.9,0.00019842513149602464
1412,0.3133036196231842,0.410134881734848,1.0,0.9,0.00019842513149602464
1413,0.3133035898208618,0.41020306944847107,1.0,0.9,0.00019842513149602464
1414,0.3133035898208618,0.41008460521698,1.0,0.91,0.00019842513149602464
1415,0.31330353021621704,0.41007694602012634,1.0,0.9,0.00019842513149602464
1416,0.31330356001853943,0.4101332128047943,1.0,0.9,0.00019842513149602464
1417,0.31330353021621704,0.41014575958251953,1.0,0.9,0.00019842513149602464
1418,0.31330350041389465,0.4100742042064667,1.0,0.9,0.00019842513149602464
1419,0.3133034408092499,0.41009292006492615,1.0,0.9,0.00019842513149602464
1420,0.3133034408092499,0.4100952446460724,1.0,0.9,0.00019842513149602464
1421,0.3133034408092499,0.4100683331489563,1.0,0.91,0.00019842513149602464
1422,0.3133034408092499,0.4101022779941559,1.0,0.9,0.00019842513149602464
1423,0.3133034110069275,0.41012492775917053,1.0,0.9,0.00019842513149602464
1424,0.3133033812046051,0.4101400673389435,1.0,0.9,0.00019842513149602464
1425,0.3133033514022827,0.4100785553455353,1.0,0.91,0.00019842513149602464
1426,0.3133033514022827,0.4100765585899353,1.0,0.91,0.00019842513149602464
1427,0.3133033514022827,0.410093754529953,1.0,0.91,0.00019842513149602464
1428,0.31330329179763794,0.4101128876209259,1.0,0.9,0.00019842513149602464
1429,0.31330329179763794,0.4100770950317383,1.0,0.9,0.00019842513149602464
1430,0.31330326199531555,0.4100479185581207,1.0,0.91,0.00019842513149602464
1431,0.31330329179763794,0.41010621190071106,1.0,0.9,0.00019842513149602464
1432,0.31330323219299316,0.41016051173210144,1.0,0.9,0.00019842513149602464
1433,0.31330323219299316,0.41008976101875305,1.0,0.9,0.00019842513149602464
1434,0.313303142786026,0.41013333201408386,1.0,0.9,0.00019842513149602464
1435,0.3133031725883484,0.41000598669052124,1.0,0.91,0.00019842513149602464
1436,0.3133031129837036,0.4100809395313263,1.0,0.9,0.00019842513149602464
1437,0.3133031725883484,0.4100986421108246,1.0,0.9,0.00019842513149602464
1438,0.3133030831813812,0.4101223051548004,1.0,0.9,0.00019842513149602464
1439,0.3133030831813812,0.4100781977176666,1.0,0.9,0.00019842513149602464
1440,0.3133030831813812,0.4101327955722809,1.0,0.9,0.00019842513149602464
1441,0.3133031129837036,0.41006577014923096,1.0,0.91,0.00019842513149602464
1442,0.31330302357673645,0.4100894629955292,1.0,0.9,0.00019842513149602464
1443,0.31330302357673645,0.41010746359825134,1.0,0.9,0.00019842513149602464
1444,0.31330302357673645,0.41013991832733154,1.0,0.9,0.00019842513149602464
1445,0.31330299377441406,0.41016024351119995,1.0,0.9,0.00019842513149602464
1446,0.3133029043674469,0.4100964665412903,1.0,0.91,0.00019842513149602464
1447,0.3133029639720917,0.41009482741355896,1.0,0.9,0.00019842513149602464
1448,0.3133029341697693,0.4100908935070038,1.0,0.91,0.00019842513149602464
1449,0.3133028745651245,0.41010475158691406,1.0,0.9,0.00019842513149602464
1450,0.3133029043674469,0.4101196229457855,1.0,0.9,0.00019842513149602464
1451,0.3133029043674469,0.4101217985153198,1.0,0.9,0.00019842513149602464
1452,0.3133028447628021,0.41015246510505676,1.0,0.9,0.00019842513149602464
1453,0.3133028745651245,0.41008564829826355,1.0,0.91,0.00019842513149602464
1454,0.31330281496047974,0.41005411744117737,1.0,0.91,0.00019842513149602464
1455,0.31330275535583496,0.41013360023498535,1.0,0.9,0.00019842513149602464
1456,0.31330281496047974,0.4101366400718689,1.0,0.9,0.00019842513149602464
1457,0.31330278515815735,0.4101077616214752,1.0,0.9,0.00019842513149602464
1458,0.31330275535583496,0.41008055210113525,1.0,0.9,0.00019842513149602464
1459,0.31330275535583496,0.41017597913742065,1.0,0.9,0.00019842513149602464
1460,0.3133026957511902,0.4101015031337738,1.0,0.91,0.00019842513149602464
1461,0.3133026659488678,0.41008105874061584,1.0,0.91,0.00019842513149602464
1462,0.3133026659488678,0.4100687801837921,1.0,0.91,0.00015749013123685888
1463,0.3133026659488678,0.4101158380508423,1.0,0.9,0.00015749013123685888
1464,0.3133026361465454,0.41017159819602966,1.0,0.9,0.00015749013123685888
1465,0.3133026361465454,0.410150945186615,1.0,0.9,0.00015749013123685888
1466,0.313302606344223,0.4100472927093506,1.0,0.91,0.00015749013123685888
1467,0.313302606344223,0.4100222885608673,1.0,0.91,0.00015749013123685888
1468,0.313302606344223,0.41013607382774353,1.0,0.9,0.00015749013123685888
1469,0.31330257654190063,0.4101719260215759,1.0,0.9,0.00015749013123685888
1470,0.313302606344223,0.4101520776748657,1.0,0.9,0.00015749013123685888
1471,0.31330251693725586,0.4100848138332367,1.0,0.91,0.00015749013123685888
1472,0.31330254673957825,0.41011035442352295,1.0,0.9,0.00015749013123685888
1473,0.31330254673957825,0.4100804924964905,1.0,0.9,0.00015749013123685888
1474,0.3133024573326111,0.41010910272598267,1.0,0.9,0.00015749013123685888
1475,0.3133024275302887,0.41007786989212036,1.0,0.91,0.00015749013123685888
1476,0.3133024573326111,0.41008034348487854,1.0,0.91,0.00015749013123685888
1477,0.31330248713493347,0.41019076108932495,1.0,0.9,0.00015749013123685888
1478,0.3133024275302887,0.41018539667129517,1.0,0.9,0.00015749013123685888
1479,0.3133024573326111,0.4100434184074402,1.0,0.91,0.00015749013123685888
1480,0.3133024275302887,0.41003429889678955,1.0,0.9,0.00015749013123685888
1481,0.3133023977279663,0.41016608476638794,1.0,0.9,0.00015749013123685888
1482,0.31330233812332153,0.41016194224357605,1.0,0.9,0.00015749013123685888
1483,0.31330233812332153,0.4100970923900604,1.0,0.9,0.00015749013123685888
1484,0.3133023679256439,0.4100341796875,1.0,0.91,0.00015749013123685888
1485,0.31330233812332153,0.41002121567726135,1.0,0.91,0.00015749013123685888
1486,0.31330233812332153,0.4101124703884125,1.0,0.9,0.00015749013123685888
1487,0.31330227851867676,0.41011688113212585,1.0,0.9,0.00015749013123685888
1488,0.31330227851867676,0.410104364156723,1.0,0.9,0.00015749013123685888
1489,0.313302218914032,0.4100736677646637,1.0,0.91,0.00015749013123685888
1490,0.31330227851867676,0.4101182222366333,1.0,0.9,0.00015749013123685888
1491,0.313302218914032,0.4100649952888489,1.0,0.91,0.00015749013123685888
1492,0.31330224871635437,0.41006848216056824,1.0,0.9,0.00015749013123685888
1493,0.3133021891117096,0.4100531041622162,1.0,0.91,0.00015749013123685888
1494,0.3133021891117096,0.4100588262081146,1.0,0.91,0.00015749013123685888
1495,0.3133021295070648,0.41011813282966614,1.0,0.9,0.00015749013123685888
1496,0.3133021593093872,0.41009533405303955,1.0,0.9,0.00015749013123685888
1497,0.3133021295070648,0.4101032614707947,1.0,0.9,0.00015749013123685888
1498,0.31330209970474243,0.41015997529029846,1.0,0.9,0.00015749013123685888
1499,0.31330209970474243,0.41017237305641174,1.0,0.9,0.00015749013123685888
1500,0.31330206990242004,0.4101426303386688,1.0,0.9,0.00015749013123685888
1501,0.3133021295070648,0.4100323021411896,1.0,0.91,0.00015749013123685888
1502,0.31330204010009766,0.41006720066070557,1.0,0.91,0.00015749013123685888
1503,0.31330206990242004,0.4101412892341614,1.0,0.9,0.00015749013123685888
1504,0.31330206990242004,0.4100817143917084,1.0,0.9,0.00015749013123685888
1505,0.31330201029777527,0.410180002450943,1.0,0.9,0.00015749013123685888
1506,0.31330206990242004,0.4101315438747406,1.0,0.9,0.00015749013123685888
1507,0.3133019804954529,0.4100143015384674,1.0,0.91,0.00015749013123685888
1508,0.31330201029777527,0.4101129472255707,1.0,0.9,0.00015749013123685888
1509,0.3133019506931305,0.41015756130218506,1.0,0.9,0.00015749013123685888
1510,0.31330201029777527,0.4100436866283417,1.0,0.91,0.00015749013123685888
1511,0.3133019506931305,0.4100744128227234,1.0,0.9,0.00015749013123685888
1512,0.3133019208908081,0.4101107716560364,1.0,0.9,0.00015749013123685888
1513,0.3133018910884857,0.4101116955280304,1.0,0.9,0.00015749013123685888
1514,0.3133019208908081,0.41011711955070496,1.0,0.9,0.00015749013123685888
1515,0.31330186128616333,0.41007301211357117,1.0,0.91,0.00015749013123685888
1516,0.31330186128616333,0.4101622402667999,1.0,0.9,0.00015749013123685888
1517,0.31330183148384094,0.41010987758636475,1.0,0.9,0.00015749013123685888
1518,0.31330186128616333,0.4100867807865143,1.0,0.91,0.00015749013123685888
1519,0.31330183148384094,0.4100855886936188,1.0,0.91,0.00015749013123685888
1520,0.31330180168151855,0.4100852310657501,1.0,0.9,0.00015749013123685888
1521,0.31330180168151855,0.41000938415527344,1.0,0.91,0.00015749013123685888
1522,0.31330177187919617,0.4100987911224365,1.0,0.9,0.00015749013123685888
1523,0.31330177187919617,0.41010504961013794,1.0,0.91,0.00015749013123685888
1524,0.3133017420768738,0.4101721942424774,1.0,0.9,0.00015749013123685888
1525,0.3133017420768738,0.41020193696022034,1.0,0.9,0.00015749013123685888
1526,0.3133017420768738,0.4100862443447113,1.0,0.91,0.00015749013123685888
1527,0.3133016526699066,0.4100640118122101,1.0,0.91,0.00015749013123685888
1528,0.313301682472229,0.4100686311721802,1.0,0.9,0.00015749013123685888
1529,0.3133016526699066,0.4101123809814453,1.0,0.9,0.00015749013123685888
1530,0.3133016526699066,0.4100815951824188,1.0,0.9,0.00015749013123685888
1531,0.3133016526699066,0.4101497530937195,1.0,0.9,0.00015749013123685888
1532,0.31330159306526184,0.4101055860519409,1.0,0.91,0.00015749013123685888
1533,0.31330162286758423,0.41012412309646606,1.0,0.9,0.00015749013123685888
1534,0.3133016526699066,0.41011592745780945,1.0,0.9,0.00015749013123685888
1535,0.31330162286758423,0.4100930392742157,1.0,0.91,0.00015749013123685888
1536,0.31330156326293945,0.41010212898254395,1.0,0.9,0.00015749013123685888
1537,0.31330153346061707,0.41016724705696106,1.0,0.9,0.00015749013123685888
1538,0.3133015036582947,0.4100772440433502,1.0,0.91,0.00015749013123685888
1539,0.31330153346061707,0.40999796986579895,1.0,0.91,0.00015749013123685888
1540,0.3133014738559723,0.4100871980190277,1.0,0.9,0.00015749013123685888
1541,0.3133014738559723,0.41010692715644836,1.0,0.9,0.00015749013123685888
1542,0.3133014440536499,0.410152792930603,1.0,0.9,0.00015749013123685888
1543,0.3133014738559723,0.4101260304450989,1.0,0.9,0.00015749013123685888
1544,0.3133014738559723,0.410049170255661,1.0,0.91,0.00015749013123685888
1545,0.3133014440536499,0.4100584089756012,1.0,0.91,0.00015749013123685888
1546,0.3133014440536499,0.41010749340057373,1.0,0.9,0.00015749013123685888
1547,0.3133013844490051,0.41012200713157654,1.0,0.9,0.00015749013123685888
1548,0.3133014440536499,0.4101550281047821,1.0,0.9,0.00015749013123685888
1549,0.3133013844490051,0.4100969731807709,1.0,0.91,0.00015749013123685888
1550,0.31330135464668274,0.4100372791290283,1.0,0.91,0.00015749013123685888
1551,0.3133013844490051,0.4100508987903595,1.0,0.91,0.00015749013123685888
1552,0.31330129504203796,0.41011664271354675,1.0,0.9,0.00015749013123685888
1553,0.31330132484436035,0.41007718443870544,1.0,0.91,0.00015749013123685888
1554,0.31330129504203796,0.4101097583770752,1.0,0.9,0.00015749013123685888
1555,0.31330132484436035,0.4101068377494812,1.0,0.9,0.00015749013123685888
1556,0.31330132484436035,0.410105437040329,1.0,0.91,0.00015749013123685888
1557,0.3133012056350708,0.4101406931877136,1.0,0.9,0.00015749013123685888
1558,0.3133012354373932,0.41019850969314575,1.0,0.9,0.00015749013123685888
1559,0.3133012652397156,0.4101294279098511,1.0,0.91,0.00015749013123685888
1560,0.3133011758327484,0.41007480025291443,1.0,0.91,0.00015749013123685888
1561,0.3133011758327484,0.4100479483604431,1.0,0.91,0.00015749013123685888
1562,0.3133012056350708,0.4100693464279175,1.0,0.91,0.00015749013123685888
1563,0.31330111622810364,0.41011494398117065,1.0,0.9,0.00012499999999999976
1564,0.3133011758327484,0.41011738777160645,1.0,0.9,0.00012499999999999976
1565,0.313301146030426,0.4101067781448364,1.0,0.91,0.00012499999999999976
1566,0.31330111622810364,0.41009294986724854,1.0,0.9,0.00012499999999999976
1567,0.31330111622810364,0.4100934863090515,1.0,0.91,0.00012499999999999976
1568,0.31330111622810364,0.4102241098880768,1.0,0.9,0.00012499999999999976
1569,0.31330111622810364,0.4101404845714569,1.0,0.91,0.00012499999999999976
1570,0.3133011758327484,0.4100368022918701,1.0,0.91,0.00012499999999999976
1571,0.31330108642578125,0.4100319743156433,1.0,0.91,0.00012499999999999976
1572,0.31330105662345886,0.41001248359680176,1.0,0.91,0.00012499999999999976
1573,0.31330105662345886,0.41006165742874146,1.0,0.9,0.00012499999999999976
1574,0.3133010268211365,0.4101536273956299,1.0,0.9,0.00012499999999999976
1575,0.3133010268211365,0.41012611985206604,1.0,0.9,0.00012499999999999976
1576,0.3133010268211365,0.41009366512298584,1.0,0.91,0.00012499999999999976
1577,0.3133009970188141,0.4100509583950043,1.0,0.91,0.00012499999999999976
1578,0.31330105662345886,0.4100855588912964,1.0,0.9,0.00012499999999999976
1579,0.3133009970188141,0.41010716557502747,1.0,0.9,0.00012499999999999976
1580,0.3133009970188141,0.41007065773010254,1.0,0.9,0.00012499999999999976
1581,0.3133009672164917,0.4100911617279053,1.0,0.91,0.00012499999999999976
1582,0.3133009672164917,0.4100355803966522,1.0,0.91,0.00012499999999999976
1583,0.3133009970188141,0.4101196527481079,1.0,0.9,0.00012499999999999976
1584,0.3133009374141693,0.410116583108902,1.0,0.9,0.00012499999999999976
1585,0.3133009970188141,0.4099958837032318,1.0,0.91,0.00012499999999999976
1586,0.3133009374141693,0.410060852766037,1.0,0.9,0.00012499999999999976
1587,0.3133009076118469,0.41017064452171326,1.0,0.9,0.00012499999999999976
1588,0.3133009076118469,0.41003718972206116,1.0,0.91,0.00012499999999999976
1589,0.31330084800720215,0.4101111590862274,1.0,0.9,0.00012499999999999976
1590,0.31330084800720215,0.4100683331489563,1.0,0.9,0.00012499999999999976
1591,0.31330087780952454,0.41006192564964294,1.0,0.9,0.00012499999999999976
1592,0.31330084800720215,0.4101113975048065,1.0,0.9,0.00012499999999999976
1593,0.31330081820487976,0.41003113985061646,1.0,0.91,0.00012499999999999976
1594,0.3133007884025574,0.4100845456123352,1.0,0.9,0.00012499999999999976
1595,0.31330084800720215,0.4101749360561371,1.0,0.9,0.00012499999999999976
1596,0.31330081820487976,0.4101851284503937,1.0,0.9,0.00012499999999999976
1597,0.31330084800720215,0.41010865569114685,1.0,0.91,0.00012499999999999976
1598,0.3133007287979126,0.41003692150115967,1.0,0.91,0.00012499999999999976
1599,0.313300758600235,0.41009074449539185,1.0,0.9,0.00012499999999999976
1600,0.3133007884025574,0.4100722372531891,1.0,0.91,0.00012499999999999976
1601,0.3133007287979126,0.41005364060401917,1.0,0.91,0.00012499999999999976
1602,0.3133007884025574,0.41012710332870483,1.0,0.9,0.00012499999999999976
1603,0.3133007287979126,0.4100622534751892,1.0,0.91,0.00012499999999999976
1604,0.3133006989955902,0.41007792949676514,1.0,0.9,0.00012499999999999976
1605,0.3133006691932678,0.41008415818214417,1.0,0.9,0.00012499999999999976
1606,0.3133006691932678,0.410062700510025,1.0,0.91,0.00012499999999999976
1607,0.3133006691932678,0.4100361764431,1.0,0.91,0.00012499999999999976
1608,0.3133006691932678,0.4101715087890625,1.0,0.9,0.00012499999999999976
1609,0.31330063939094543,0.410078763961792,1.0,0.9,0.00012499999999999976
1610,0.31330063939094543,0.4099983870983124,1.0,0.91,0.00012499999999999976
1611,0.31330063939094543,0.410022497177124,1.0,0.9,0.00012499999999999976
1612,0.31330060958862305,0.41006800532341003,1.0,0.9,0.00012499999999999976
1613,0.31330057978630066,0.4100702702999115,1.0,0.9,0.00012499999999999976
1614,0.31330060958862305,0.41006070375442505,1.0,0.91,0.00012499999999999976
1615,0.31330060958862305,0.4101203978061676,1.0,0.9,0.00012499999999999976
1616,0.31330057978630066,0.4100620150566101,1.0,0.91,0.00012499999999999976
1617,0.31330054998397827,0.4100687503814697,1.0,0.91,0.00012499999999999976
1618,0.31330054998397827,0.41012123227119446,1.0,0.9,0.00012499999999999976
1619,0.3133005201816559,0.4100573658943176,1.0,0.9,0.00012499999999999976
1620,0.3133005201816559,0.4100872278213501,1.0,0.9,0.00012499999999999976
1621,0.3133004903793335,0.41009771823883057,1.0,0.9,0.00012499999999999976
1622,0.3133005201816559,0.4100618064403534,1.0,0.91,0.00012499999999999976
1623,0.3133004903793335,0.41002488136291504,1.0,0.91,0.00012499999999999976
1624,0.3133004903793335,0.41006410121917725,1.0,0.9,0.00012499999999999976
1625,0.3133004307746887,0.41005825996398926,1.0,0.91,0.00012499999999999976
1626,0.3133004903793335,0.4101334810256958,1.0,0.9,0.00012499999999999976
1627,0.3133004307746887,0.4100324511528015,1.0,0.91,0.00012499999999999976
1628,0.3133004307746887,0.41008567810058594,1.0,0.9,0.00012499999999999976
1629,0.31330040097236633,0.41007542610168457,1.0,0.9,0.00012499999999999976
1630,0.31330040097236633,0.4101414084434509,1.0,0.9,0.00012499999999999976
1631,0.3133004307746887,0.41006630659103394,1.0,0.91,0.00012499999999999976
1632,0.31330031156539917,0.4100765287876129,1.0,0.9,0.00012499999999999976
1633,0.31330040097236633,0.4100792706012726,1.0,0.91,0.00012499999999999976
1634,0.31330034136772156,0.4100964665412903,1.0,0.9,0.00012499999999999976
1635,0.31330037117004395,0.41006961464881897,1.0,0.91,0.00012499999999999976
1636,0.31330031156539917,0.4100385308265686,1.0,0.9,0.00012499999999999976
1637,0.31330031156539917,0.4100770652294159,1.0,0.9,0.00012499999999999976
1638,0.3133002817630768,0.41006705164909363,1.0,0.9,0.00012499999999999976
1639,0.31330031156539917,0.4101284444332123,1.0,0.9,0.00012499999999999976
1640,0.3133002519607544,0.41004183888435364,1.0,0.91,0.00012499999999999976
1641,0.3133002519607544,0.4100967049598694,1.0,0.9,0.00012499999999999976
1642,0.313300222158432,0.41009846329689026,1.0,0.91,0.00012499999999999976
1643,0.3133001923561096,0.409994900226593,1.0,0.91,0.00012499999999999976
1644,0.313300222158432,0.41005051136016846,1.0,0.9,0.00012499999999999976
1645,0.313300222158432,0.4100777804851532,1.0,0.9,0.00012499999999999976
1646,0.31330016255378723,0.4100913107395172,1.0,0.9,0.00012499999999999976
1647,0.3133001923561096,0.4100324213504791,1.0,0.91,0.00012499999999999976
1648,0.313300222158432,0.41005775332450867,1.0,0.9,0.00012499999999999976
1649,0.3133001923561096,0.4100363254547119,1.0,0.91,0.00012499999999999976
1650,0.31330013275146484,0.4100465774536133,1.0,0.9,0.00012499999999999976
1651,0.31330013275146484,0.41012275218963623,1.0,0.9,0.00012499999999999976
1652,0.31330013275146484,0.4100756347179413,1.0,0.9,0.00012499999999999976
1653,0.31330016255378723,0.409977525472641,1.0,0.91,0.00012499999999999976
1654,0.31330010294914246,0.4100145399570465,1.0,0.91,0.00012499999999999976
1655,0.31330010294914246,0.4100959002971649,1.0,0.9,0.00012499999999999976
1656,0.31330010294914246,0.4101489782333374,1.0,0.9,0.00012499999999999976
1657,0.31330010294914246,0.4101139008998871,1.0,0.9,0.00012499999999999976
1658,0.31330007314682007,0.4100254774093628,1.0,0.91,0.00012499999999999976
1659,0.3133000135421753,0.409973680973053,1.0,0.91,0.00012499999999999976
1660,0.3133000433444977,0.41003555059432983,1.0,0.91,0.00012499999999999976
1661,0.3133000135421753,0.41002994775772095,1.0,0.91,0.00012499999999999976
1662,0.3133000135421753,0.41006243228912354,1.0,0.91,0.00012499999999999976
1663,0.3133000433444977,0.4101153314113617,1.0,0.9,0.00012499999999999976
1664,0.3133000135421753,0.41006404161453247,1.0,0.91,0.0001
1665,0.3132999837398529,0.41007161140441895,1.0,0.91,0.0001
1666,0.3132999837398529,0.41011276841163635,1.0,0.9,0.0001
1667,0.3132999539375305,0.41006556153297424,1.0,0.9,0.0001
1668,0.3132999539375305,0.41006529331207275,1.0,0.91,0.0001
1669,0.3132999539375305,0.4100772738456726,1.0,0.91,0.0001
1670,0.31329992413520813,0.41001445055007935,1.0,0.91,0.0001
1671,0.3132999837398529,0.41000378131866455,1.0,0.91,0.0001
1672,0.31329989433288574,0.41005411744117737,1.0,0.9,0.0001
1673,0.31329992413520813,0.4100891053676605,1.0,0.9,0.0001
1674,0.31329989433288574,0.4101462960243225,1.0,0.9,0.0001
1675,0.31329989433288574,0.4100337326526642,1.0,0.91,0.0001
1676,0.31329989433288574,0.410023957490921,1.0,0.91,0.0001
1677,0.31329983472824097,0.41007930040359497,1.0,0.9,0.0001
1678,0.31329986453056335,0.4100930690765381,1.0,0.9,0.0001
1679,0.31329986453056335,0.4100932776927948,1.0,0.9,0.0001
1680,0.31329989433288574,0.41008639335632324,1.0,0.91,0.0001
1681,0.31329983472824097,0.41000914573669434,1.0,0.91,0.0001
1682,0.31329983472824097,0.41000279784202576,1.0,0.91,0.0001
1683,0.31329983472824097,0.4100867807865143,1.0,0.9,0.0001
1684,0.31329983472824097,0.41006922721862793,1.0,0.91,0.0001
1685,0.3132998049259186,0.4100337624549866,1.0,0.91,0.0001
1686,0.31329983472824097,0.4100074768066406,1.0,0.91,0.0001
1687,0.3132998049259186,0.410023957490921,1.0,0.91,0.0001
1688,0.3132997751235962,0.4100337326526642,1.0,0.91,0.0001
1689,0.3132997751235962,0.4101406931877136,1.0,0.9,0.0001
1690,0.3132997453212738,0.41010239720344543,1.0,0.91,0.0001
1691,0.3132997751235962,0.4100688695907593,1.0,0.91,0.0001
1692,0.31329968571662903,0.4100218117237091,1.0,0.91,0.0001
1693,0.3132997453212738,0.41004741191864014,1.0,0.91,0.0001
1694,0.31329968571662903,0.4100181460380554,1.0,0.91,0.0001
1695,0.31329962611198425,0.41011756658554077,1.0,0.9,0.0001
1696,0.31329968571662903,0.41013801097869873,1.0,0.9,0.0001
1697,0.31329965591430664,0.4100300669670105,1.0,0.91,0.0001
1698,0.31329962611198425,0.4100284278392792,1.0,0.91,0.0001
1699,0.31329962611198425,0.4100196063518524,1.0,0.91,0.0001
1700,0.31329965591430664,0.41010430455207825,1.0,0.9,0.0001
1701,0.31329965591430664,0.41008836030960083,1.0,0.91,0.0001
1702,0.31329965591430664,0.41003090143203735,1.0,0.91,0.0001
1703,0.31329962611198425,0.40999072790145874,1.0,0.91,0.0001
1704,0.31329968571662903,0.410039484500885,1.0,0.91,0.0001
1705,0.3132995665073395,0.41002628207206726,1.0,0.91,0.0001
1706,0.3132995367050171,0.41011103987693787,1.0,0.9,0.0001
1707,0.3132995665073395,0.410080224275589,1.0,0.91,0.0001
1708,0.3132995665073395,0.41004565358161926,1.0,0.91,0.0001
1709,0.3132995367050171,0.4100458025932312,1.0,0.91,0.0001
1710,0.3132995367050171,0.4101087152957916,1.0,0.9,0.0001
1711,0.3132995367050171,0.41010212898254395,1.0,0.9,0.0001
1712,0.3132995665073395,0.4100687801837921,1.0,0.91,0.0001
1713,0.3132995367050171,0.41001635789871216,1.0,0.91,0.0001
1714,0.3132995367050171,0.41004660725593567,1.0,0.91,0.0001
1715,0.3132994771003723,0.4100321829319,1.0,0.91,0.0001
1716,0.3132994771003723,0.4100826680660248,1.0,0.9,0.0001
1717,0.3132994771003723,0.410057932138443,1.0,0.91,0.0001
1718,0.3132994771003723,0.4101133346557617,1.0,0.9,0.0001
1719,0.3132994771003723,0.41007137298583984,1.0,0.91,0.0001
1720,0.3132994771003723,0.41002628207206726,1.0,0.91,0.0001
1721,0.3132994472980499,0.41002288460731506,1.0,0.91,0.0001
1722,0.3132994472980499,0.4101637005805969,1.0,0.9,0.0001
1723,0.31329938769340515,0.4101639986038208,1.0,0.9,0.0001
1724,0.31329938769340515,0.41003403067588806,1.0,0.91,0.0001
1725,0.31329935789108276,0.41004082560539246,1.0,0.91,0.0001
1726,0.31329941749572754,0.4101088047027588,1.0,0.9,0.0001
1727,0.31329938769340515,0.4100334644317627,1.0,0.91,0.0001
1728,0.31329935789108276,0.41000738739967346,1.0,0.91,0.0001
1729,0.31329935789108276,0.41002559661865234,1.0,0.91,0.0001
1730,0.31329935789108276,0.4100651443004608,1.0,0.9,0.0001
1731,0.313299298286438,0.41007789969444275,1.0,0.91,0.0001
1732,0.3132993280887604,0.4101017117500305,1.0,0.91,0.0001
1733,0.31329935789108276,0.4100225865840912,1.0,0.91,0.0001
1734,0.313299298286438,0.4100765585899353,1.0,0.9,0.0001
1735,0.31329935789108276,0.41002556681632996,1.0,0.91,0.0001
1736,0.313299298286438,0.410051167011261,1.0,0.9,0.0001
1737,0.313299298286438,0.4100237190723419,1.0,0.91,0.0001
1738,0.3132992684841156,0.41001805663108826,1.0,0.91,0.0001
1739,0.313299298286438,0.41013380885124207,1.0,0.9,0.0001
1740,0.313299298286438,0.41008442640304565,1.0,0.91,0.0001
1741,0.3132992684841156,0.4099999964237213,1.0,0.91,0.0001
1742,0.3132992386817932,0.4099910855293274,1.0,0.91,0.0001
1743,0.3132992386817932,0.4100421965122223,1.0,0.91,0.0001
1744,0.31329914927482605,0.41005271673202515,1.0,0.9,0.0001
1745,0.3132992088794708,0.4100569188594818,1.0,0.91,0.0001
1746,0.3132992088794708,0.4100291430950165,1.0,0.91,0.0001
1747,0.3132992386817932,0.4100300967693329,1.0,0.9,0.0001
1748,0.3132992088794708,0.4100807309150696,1.0,0.9,0.0001
1749,0.3132992386817932,0.4100797772407532,1.0,0.91,0.0001
1750,0.31329914927482605,0.41005533933639526,1.0,0.9,0.0001
1751,0.3132992088794708,0.4100509583950043,1.0,0.91,0.0001
1752,0.3132992088794708,0.41003140807151794,1.0,0.91,0.0001
1753,0.31329914927482605,0.41001754999160767,1.0,0.91,0.0001
1754,0.3132990896701813,0.41002658009529114,1.0,0.91,0.0001
1755,0.3132990896701813,0.4100334048271179,1.0,0.9,0.0001
1756,0.3132990896701813,0.4100761413574219,1.0,0.91,0.0001
1757,0.31329911947250366,0.41007301211357117,1.0,0.9,0.0001
1758,0.3132990896701813,0.41008198261260986,1.0,0.9,0.0001
1759,0.3132990896701813,0.4099422097206116,1.0,0.91,0.0001
1760,0.3132990896701813,0.4099595546722412,1.0,0.91,0.0001
1761,0.3132990598678589,0.41005051136016846,1.0,0.9,0.0001
1762,0.3132990896701813,0.4101233184337616,1.0,0.9,0.0001
1763,0.3132990598678589,0.4101293683052063,1.0,0.9,0.0001
1764,0.3132990598678589,0.4100392460823059,1.0,0.91,0.0001
1765,0.3132990598678589,0.4100220501422882,1.0,0.91,0.0001
1766,0.3132990300655365,0.4100370407104492,1.0,0.9,0.0001
1767,0.3132990002632141,0.4100954532623291,1.0,0.9,0.0001
1768,0.3132990002632141,0.41006919741630554,1.0,0.91,0.0001
1769,0.3132990598678589,0.41002246737480164,1.0,0.91,0.0001
1770,0.3132989704608917,0.40997520089149475,1.0,0.91,0.0001
1771,0.3132989704608917,0.410022497177124,1.0,0.9,0.0001
1772,0.31329894065856934,0.41007065773010254,1.0,0.91,0.0001
1773,0.3132989704608917,0.4100915789604187,1.0,0.9,0.0001
1774,0.31329894065856934,0.4100780785083771,1.0,0.91,0.0001
1775,0.31329894065856934,0.41001254320144653,1.0,0.91,0.0001
1776,0.31329888105392456,0.4100707173347473,1.0,0.91,0.0001
1777,0.3132989704608917,0.4100858271121979,1.0,0.9,0.0001
1778,0.31329894065856934,0.41011133790016174,1.0,0.9,0.0001
1779,0.31329891085624695,0.4100358188152313,1.0,0.91,0.0001
1780,0.31329888105392456,0.4100176692008972,1.0,0.91,0.0001
1781,0.31329888105392456,0.4100421071052551,1.0,0.9,0.0001
1782,0.31329888105392456,0.4100955128669739,1.0,0.9,0.0001
1783,0.31329888105392456,0.41007134318351746,1.0,0.9,0.0001
1784,0.3132988512516022,0.41007453203201294,1.0,0.91,0.0001
1785,0.3132987916469574,0.4100532531738281,1.0,0.91,0.0001
1786,0.3132988214492798,0.4100598990917206,1.0,0.91,0.0001
1787,0.3132988214492798,0.4101068377494812,1.0,0.9,0.0001
1788,0.31329888105392456,0.4100272059440613,1.0,0.91,0.0001
1789,0.3132987916469574,0.40999001264572144,1.0,0.91,0.0001
1790,0.3132987916469574,0.4100534915924072,1.0,0.9,0.0001
1791,0.3132987916469574,0.4101037085056305,1.0,0.9,0.0001
1792,0.313298761844635,0.410137414932251,1.0,0.9,0.0001
1793,0.3132988214492798,0.4100046455860138,1.0,0.91,0.0001
1794,0.3132987320423126,0.410019189119339,1.0,0.91,0.0001
1795,0.3132987320423126,0.4101152718067169,1.0,0.9,0.0001
1796,0.3132987320423126,0.4101010262966156,1.0,0.91,0.0001
1797,0.313298761844635,0.4100671410560608,1.0,0.9,0.0001
1798,0.31329867243766785,0.4100729823112488,1.0,0.9,0.0001
