,train loss,val loss,train acc,val acc,lr
0,0.812197744846344,0.7774264812469482,0.31,0.36,0.001
1,0.7986194491386414,0.7677603960037231,0.31,0.36,0.001
2,0.7856164574623108,0.7559447288513184,0.31,0.36,0.001
3,0.7724319696426392,0.7450082898139954,0.31,0.36,0.001
4,0.7596319317817688,0.7347022891044617,0.31,0.36,0.001
5,0.7476373314857483,0.7255488634109497,0.31,0.36,0.001
6,0.7367395162582397,0.7173851728439331,0.31,0.36,0.001
7,0.726895809173584,0.7099012732505798,0.31,0.37,0.001
8,0.7177287340164185,0.7020161151885986,0.31,0.38,0.001
9,0.7086721062660217,0.6944296956062317,0.35,0.41,0.001
10,0.6994454860687256,0.6872798800468445,0.38,0.42,0.001
11,0.6903577446937561,0.6800457239151001,0.43,0.51,0.001
12,0.6816282868385315,0.6733214855194092,0.48,0.6,0.001
13,0.6733174324035645,0.6673477292060852,0.53,0.62,0.001
14,0.6654598712921143,0.66172194480896,0.64,0.64,0.001
15,0.6581609845161438,0.656629741191864,0.69,0.66,0.001
16,0.6514934301376343,0.6522867679595947,0.7,0.67,0.001
17,0.6454421281814575,0.6482764482498169,0.71,0.7,0.001
18,0.6397749185562134,0.6447914838790894,0.71,0.69,0.001
19,0.6344030499458313,0.6417098045349121,0.72,0.69,0.001
20,0.6292356848716736,0.6386731863021851,0.74,0.69,0.001
21,0.6242119669914246,0.6359432935714722,0.76,0.7,0.001
22,0.6194120049476624,0.6327941417694092,0.76,0.72,0.001
23,0.6148772239685059,0.6298266649246216,0.78,0.72,0.001
24,0.6105830669403076,0.6267042756080627,0.79,0.72,0.001
25,0.606520414352417,0.6233803033828735,0.8,0.72,0.001
26,0.6026762127876282,0.6197963953018188,0.8,0.72,0.001
27,0.5989850759506226,0.6163474917411804,0.8,0.73,0.001
28,0.595422625541687,0.6129072308540344,0.8,0.73,0.001
29,0.5919773578643799,0.6097692251205444,0.8,0.73,0.001
30,0.5886943340301514,0.6071122884750366,0.8,0.73,0.001
31,0.5856114625930786,0.6045708656311035,0.8,0.74,0.001
32,0.5827138423919678,0.6022763848304749,0.8,0.74,0.001
33,0.5799405574798584,0.6005271673202515,0.8,0.74,0.001
34,0.5772419571876526,0.5987046957015991,0.8,0.74,0.001
35,0.5746705532073975,0.5969938039779663,0.8,0.74,0.001
36,0.5721899271011353,0.5955747961997986,0.79,0.74,0.001
37,0.5697953104972839,0.5942259430885315,0.81,0.74,0.001
38,0.5674766302108765,0.5925161838531494,0.81,0.75,0.001
39,0.5652579069137573,0.5908331871032715,0.81,0.75,0.001
40,0.5631192326545715,0.5892542004585266,0.81,0.75,0.001
41,0.5610591769218445,0.5877476930618286,0.83,0.76,0.001
42,0.5590560436248779,0.5861698389053345,0.83,0.76,0.001
43,0.5571090579032898,0.5844579339027405,0.83,0.76,0.001
44,0.5551903247833252,0.5830161571502686,0.83,0.76,0.001
45,0.5533320307731628,0.5818912386894226,0.83,0.76,0.001
46,0.5515503883361816,0.5804405808448792,0.83,0.77,0.001
47,0.5497994422912598,0.5791014432907104,0.83,0.77,0.001
48,0.5480856895446777,0.578039824962616,0.83,0.76,0.001
49,0.5463700890541077,0.5768009424209595,0.83,0.76,0.001
50,0.5446786284446716,0.5751664638519287,0.83,0.78,0.001
51,0.5430148243904114,0.5737436413764954,0.83,0.78,0.001
52,0.541374146938324,0.5724225044250488,0.82,0.78,0.001
53,0.5397485494613647,0.5709032416343689,0.82,0.78,0.001
54,0.5381331443786621,0.5693073868751526,0.82,0.78,0.001
55,0.5365362763404846,0.5679464340209961,0.82,0.77,0.001
56,0.5349549055099487,0.5666797757148743,0.82,0.77,0.001
57,0.5333530306816101,0.5652744174003601,0.82,0.77,0.001
58,0.5317643880844116,0.5638311505317688,0.84,0.77,0.001
59,0.5301425457000732,0.5625949501991272,0.84,0.77,0.001
60,0.5285021066665649,0.5614181756973267,0.85,0.77,0.001
61,0.5268475413322449,0.5602871179580688,0.85,0.77,0.001
62,0.5251827836036682,0.5591259002685547,0.85,0.77,0.001
63,0.5235279202461243,0.5579528212547302,0.85,0.77,0.001
64,0.5218750238418579,0.5568467378616333,0.85,0.77,0.001
65,0.5202247500419617,0.5556017160415649,0.85,0.77,0.001
66,0.5185690522193909,0.5543349981307983,0.85,0.77,0.001
67,0.5169032216072083,0.5529639720916748,0.85,0.76,0.001
68,0.5152338147163391,0.5516241192817688,0.85,0.76,0.001
69,0.5135576128959656,0.5502917766571045,0.85,0.76,0.001
70,0.5118710398674011,0.5487822890281677,0.86,0.76,0.001
71,0.5101794600486755,0.5475659370422363,0.87,0.76,0.001
72,0.508463442325592,0.5464248061180115,0.87,0.76,0.001
73,0.5067057609558105,0.545386791229248,0.87,0.77,0.001
74,0.5049469470977783,0.5443731546401978,0.87,0.77,0.001
75,0.5031590461730957,0.5434578061103821,0.87,0.77,0.001
76,0.5013763904571533,0.5422297120094299,0.88,0.77,0.001
77,0.4995923638343811,0.541179895401001,0.88,0.77,0.001
78,0.49777862429618835,0.5395132899284363,0.88,0.77,0.001
79,0.4959653615951538,0.5380581021308899,0.88,0.77,0.001
80,0.4941478669643402,0.5370059013366699,0.88,0.77,0.001
81,0.49233072996139526,0.5359998941421509,0.89,0.77,0.001
82,0.4904880225658417,0.5354902744293213,0.89,0.78,0.001
83,0.48866283893585205,0.5339397192001343,0.9,0.79,0.001
84,0.486855149269104,0.5331815481185913,0.9,0.79,0.001
85,0.4850730001926422,0.5309221744537354,0.9,0.79,0.001
86,0.4832807779312134,0.5306985974311829,0.9,0.81,0.001
87,0.4814370274543762,0.5292062163352966,0.9,0.81,0.001
88,0.4796870946884155,0.5279399156570435,0.89,0.81,0.001
89,0.4779788851737976,0.5266868472099304,0.89,0.82,0.001
90,0.47631844878196716,0.5250353813171387,0.89,0.82,0.001
91,0.47472110390663147,0.5255225896835327,0.89,0.82,0.001
92,0.47300586104393005,0.5233010649681091,0.89,0.82,0.001
93,0.4712527096271515,0.5233418941497803,0.89,0.82,0.001
94,0.4693918228149414,0.5217451453208923,0.89,0.82,0.001
95,0.4677518606185913,0.5204867720603943,0.9,0.83,0.001
96,0.46626484394073486,0.5202394127845764,0.9,0.82,0.001
97,0.4644934833049774,0.5187906622886658,0.9,0.82,0.001
98,0.46273505687713623,0.5186878442764282,0.9,0.82,0.001
99,0.4610230326652527,0.5174998044967651,0.9,0.82,0.001
100,0.4595049321651459,0.5162915587425232,0.9,0.84,0.001
101,0.4580188989639282,0.5159201622009277,0.9,0.82,0.001
102,0.45637425780296326,0.5154802799224854,0.9,0.82,0.001
103,0.4546995162963867,0.5149141550064087,0.9,0.82,0.001
104,0.4531090557575226,0.513704240322113,0.91,0.82,0.001
105,0.45157307386398315,0.5127161145210266,0.91,0.82,0.001
106,0.4500166177749634,0.5117947459220886,0.91,0.82,0.001
107,0.4485294222831726,0.5111531615257263,0.91,0.83,0.001
108,0.44706302881240845,0.5097678899765015,0.91,0.83,0.001
109,0.44566604495048523,0.5092380046844482,0.91,0.84,0.001
110,0.4443274438381195,0.5086936354637146,0.92,0.83,0.001
111,0.44295379519462585,0.5077239871025085,0.91,0.84,0.001
112,0.44156181812286377,0.5074918270111084,0.92,0.83,0.001
113,0.44005873799324036,0.5061133503913879,0.92,0.84,0.001
114,0.43863433599472046,0.5049846172332764,0.92,0.84,0.001
115,0.43726521730422974,0.5037808418273926,0.92,0.83,0.001
116,0.43600377440452576,0.5032520294189453,0.93,0.83,0.001
117,0.43482914566993713,0.5023519992828369,0.94,0.85,0.001
118,0.43372824788093567,0.5012136101722717,0.94,0.84,0.001
119,0.4326332211494446,0.4995863437652588,0.96,0.85,0.001
120,0.4308794438838959,0.49828311800956726,0.94,0.85,0.001
121,0.4294094145298004,0.4982657730579376,0.97,0.84,0.001
122,0.4285091161727905,0.4971381723880768,0.97,0.87,0.001
123,0.4273906946182251,0.4960371255874634,0.97,0.85,0.001
124,0.4259320795536041,0.494348406791687,0.97,0.87,0.001
125,0.42445772886276245,0.49372997879981995,0.97,0.86,0.001
126,0.42339029908180237,0.49374762177467346,0.97,0.87,0.001
127,0.42236563563346863,0.4919677972793579,0.97,0.87,0.001
128,0.42098820209503174,0.49102097749710083,0.97,0.87,0.001
129,0.41970595717430115,0.49115198850631714,0.97,0.86,0.001
130,0.4186614751815796,0.4911515712738037,0.97,0.87,0.001
131,0.4176098108291626,0.4898149371147156,0.97,0.89,0.001
132,0.41641348600387573,0.4875536262989044,0.97,0.88,0.001
133,0.4151911437511444,0.4870857298374176,0.97,0.89,0.001
134,0.4140561819076538,0.4877634048461914,0.97,0.87,0.001
135,0.4130638837814331,0.4857374429702759,0.97,0.87,0.001
136,0.4120669960975647,0.48520806431770325,0.97,0.89,0.001
137,0.41100940108299255,0.4827274680137634,0.97,0.89,0.001
138,0.40985485911369324,0.4833967685699463,0.97,0.9,0.001
139,0.40862682461738586,0.4829706847667694,0.97,0.89,0.001
140,0.4076167047023773,0.4805360734462738,0.97,0.89,0.001
141,0.4068288505077362,0.48131564259529114,0.97,0.89,0.001
142,0.4062197804450989,0.47880518436431885,0.97,0.9,0.001
143,0.4049501121044159,0.47983261942863464,0.97,0.9,0.001
144,0.403595894575119,0.4789421558380127,0.97,0.9,0.001
145,0.4026361405849457,0.4768810272216797,0.97,0.89,0.001
146,0.40188896656036377,0.47837308049201965,0.97,0.89,0.001
147,0.4011685252189636,0.4763857126235962,0.97,0.9,0.001
148,0.3999031186103821,0.4773193299770355,0.98,0.9,0.001
149,0.39872032403945923,0.47569918632507324,0.98,0.89,0.001
150,0.39773720502853394,0.4742553234100342,0.98,0.89,0.001
151,0.3969511389732361,0.47539564967155457,0.98,0.89,0.001
152,0.3961665630340576,0.473936527967453,0.98,0.9,0.001
153,0.3952239155769348,0.47414830327033997,0.98,0.89,0.001
154,0.3942963480949402,0.47218531370162964,0.98,0.89,0.001
155,0.39330700039863586,0.472227543592453,0.98,0.89,0.001
156,0.39239951968193054,0.4723605215549469,0.98,0.89,0.001
157,0.3915828466415405,0.47049984335899353,0.98,0.89,0.001
158,0.39089688658714294,0.4716479480266571,0.98,0.89,0.001
159,0.39049163460731506,0.4690549969673157,0.98,0.89,0.001
160,0.39000266790390015,0.4713869094848633,0.99,0.89,0.001
161,0.3890608549118042,0.46937257051467896,0.98,0.89,0.001
162,0.3875981271266937,0.469431608915329,0.99,0.9,0.001
163,0.38704031705856323,0.4712637662887573,0.99,0.89,0.001
164,0.38712969422340393,0.46801257133483887,0.98,0.89,0.001
165,0.38567647337913513,0.46837249398231506,0.99,0.89,0.001
166,0.3844345211982727,0.46866610646247864,0.99,0.89,0.001
167,0.3840976655483246,0.4664998948574066,0.99,0.9,0.001
168,0.3834044933319092,0.46735772490501404,0.99,0.89,0.001
169,0.38233011960983276,0.46627578139305115,0.99,0.89,0.001
170,0.38156962394714355,0.465180367231369,0.99,0.9,0.001
171,0.38110125064849854,0.46674686670303345,0.99,0.9,0.001
172,0.3804797828197479,0.46497100591659546,0.99,0.89,0.001
173,0.37949231266975403,0.464843213558197,0.99,0.89,0.001
174,0.37877601385116577,0.46575406193733215,0.99,0.9,0.001
175,0.3783785104751587,0.4637475609779358,0.99,0.9,0.001
176,0.3777599334716797,0.46510764956474304,0.99,0.89,0.001
177,0.3769475817680359,0.4636760652065277,0.99,0.89,0.001
178,0.37609589099884033,0.46335533261299133,0.99,0.9,0.001
179,0.37543267011642456,0.46356967091560364,0.99,0.9,0.001
180,0.37494513392448425,0.46182289719581604,0.99,0.9,0.001
181,0.3744686543941498,0.4633708894252777,0.99,0.9,0.001
182,0.374049574136734,0.4613913595676422,0.99,0.9,0.001
183,0.37325718998908997,0.462536096572876,0.99,0.9,0.001
184,0.37247180938720703,0.4614237844944,0.99,0.89,0.001
185,0.37172073125839233,0.4606817364692688,0.99,0.9,0.001
186,0.3712170422077179,0.4616810083389282,0.99,0.88,0.001
187,0.3707866370677948,0.45968684554100037,0.99,0.9,0.001
188,0.3703320026397705,0.46117252111434937,0.99,0.9,0.001
189,0.36984309554100037,0.45955073833465576,0.99,0.88,0.001
190,0.3690715432167053,0.4601232409477234,0.99,0.88,0.001
191,0.3683038651943207,0.45950043201446533,0.99,0.89,0.001
192,0.36775290966033936,0.45904844999313354,0.99,0.89,0.001
193,0.3672913610935211,0.45928671956062317,0.99,0.89,0.001
194,0.36700043082237244,0.4576859772205353,0.99,0.89,0.001
195,0.3665846288204193,0.4593595862388611,0.99,0.89,0.001
196,0.36592620611190796,0.4581356346607208,0.99,0.9,0.001
197,0.3650577962398529,0.45716390013694763,0.99,0.9,0.001
198,0.3645492494106293,0.45777684450149536,0.99,0.88,0.001
199,0.3643995523452759,0.456055611371994,0.99,0.89,0.001
200,0.36406779289245605,0.45775699615478516,0.99,0.88,0.001
201,0.3634817898273468,0.4560941755771637,0.99,0.9,0.001
202,0.36254429817199707,0.4553416073322296,0.99,0.88,0.001
203,0.36198851466178894,0.4563116133213043,0.99,0.88,0.001
204,0.3618426024913788,0.45481690764427185,0.99,0.9,0.001
205,0.3615247309207916,0.4559347927570343,0.99,0.89,0.001
206,0.3608206808567047,0.45420798659324646,0.99,0.89,0.001
207,0.35999569296836853,0.45437103509902954,0.99,0.89,0.001
208,0.3595011532306671,0.45482948422431946,0.99,0.9,0.001
209,0.35924720764160156,0.45324623584747314,0.99,0.89,0.001
210,0.35874882340431213,0.4534532129764557,0.99,0.9,0.001
211,0.35813167691230774,0.4530690312385559,1.0,0.89,0.001
212,0.3575132489204407,0.4532756805419922,0.99,0.89,0.001
213,0.3570481240749359,0.45341217517852783,0.99,0.89,0.001
214,0.35668158531188965,0.4519275426864624,1.0,0.89,0.001
215,0.3563842475414276,0.4530434012413025,1.0,0.89,0.001
216,0.35600584745407104,0.451803594827652,1.0,0.88,0.001
217,0.35553210973739624,0.45239830017089844,1.0,0.89,0.001
218,0.35492756962776184,0.4512202739715576,1.0,0.89,0.001
219,0.35432547330856323,0.4509831368923187,1.0,0.88,0.001
220,0.35387295484542847,0.4513222575187683,1.0,0.87,0.001
221,0.3535654544830322,0.4504075348377228,1.0,0.89,0.001
222,0.35336029529571533,0.45120343565940857,1.0,0.89,0.001
223,0.35320404171943665,0.4499014914035797,1.0,0.87,0.001
224,0.3526749014854431,0.45082947611808777,1.0,0.87,0.001
225,0.3519662916660309,0.45007437467575073,1.0,0.87,0.001
226,0.35133540630340576,0.44930413365364075,1.0,0.89,0.001
227,0.3511147201061249,0.45004093647003174,1.0,0.89,0.001
228,0.3510912358760834,0.44851967692375183,1.0,0.88,0.001
229,0.35078585147857666,0.4496883451938629,1.0,0.89,0.001
230,0.3501739501953125,0.44878479838371277,1.0,0.88,0.001
231,0.3494138717651367,0.4481796324253082,1.0,0.88,0.001
232,0.34915676712989807,0.448887437582016,1.0,0.89,0.001
233,0.3491811752319336,0.44784584641456604,1.0,0.88,0.001
234,0.34876373410224915,0.44849568605422974,1.0,0.88,0.001
235,0.34801405668258667,0.4477930963039398,1.0,0.88,0.001
236,0.3475280702114105,0.44727152585983276,1.0,0.88,0.001
237,0.3474849760532379,0.4481145143508911,1.0,0.88,0.001
238,0.34740912914276123,0.4470638930797577,1.0,0.88,0.001
239,0.3468073010444641,0.44751593470573425,1.0,0.88,0.001
240,0.34612274169921875,0.44724202156066895,1.0,0.88,0.001
241,0.34582287073135376,0.44711437821388245,1.0,0.88,0.001
242,0.3456626832485199,0.4477662146091461,1.0,0.88,0.001
243,0.34535232186317444,0.4461992383003235,1.0,0.88,0.001
244,0.3448317050933838,0.4457228481769562,1.0,0.88,0.001
245,0.34444546699523926,0.44651129841804504,1.0,0.88,0.001
246,0.34425804018974304,0.44620177149772644,1.0,0.88,0.001
247,0.3440169095993042,0.4460705518722534,1.0,0.88,0.001
248,0.34363797307014465,0.4453265368938446,1.0,0.88,0.001
249,0.34319594502449036,0.44547897577285767,1.0,0.88,0.001
250,0.34288039803504944,0.4459289312362671,1.0,0.88,0.001
251,0.34266066551208496,0.4449765384197235,1.0,0.87,0.001
252,0.34243229031562805,0.44505539536476135,1.0,0.88,0.001
253,0.34211575984954834,0.44437670707702637,1.0,0.88,0.001
254,0.34172606468200684,0.44508713483810425,1.0,0.88,0.001
255,0.34136947989463806,0.44484931230545044,1.0,0.88,0.001
256,0.34114474058151245,0.44413238763809204,1.0,0.87,0.001
257,0.3409546911716461,0.44465184211730957,1.0,0.87,0.001
258,0.3407020568847656,0.4445316791534424,1.0,0.87,0.001
259,0.3404000997543335,0.44446995854377747,1.0,0.88,0.001
260,0.34003159403800964,0.4437052011489868,1.0,0.87,0.001
261,0.339695543050766,0.4436173141002655,1.0,0.87,0.001
262,0.33945232629776,0.4440142512321472,1.0,0.88,0.001
263,0.3392905294895172,0.44330334663391113,1.0,0.87,0.001
264,0.33912017941474915,0.4439769685268402,1.0,0.88,0.001
265,0.3388587534427643,0.44317612051963806,1.0,0.87,0.001
266,0.3385287821292877,0.44287970662117004,1.0,0.87,0.001
267,0.3381892740726471,0.44287747144699097,1.0,0.87,0.001
268,0.33792105317115784,0.44342437386512756,1.0,0.88,0.001
269,0.33774662017822266,0.442839115858078,1.0,0.87,0.001
270,0.3375835716724396,0.4420318305492401,1.0,0.87,0.001
271,0.33733654022216797,0.44288790225982666,1.0,0.88,0.001
272,0.33704566955566406,0.442251592874527,1.0,0.87,0.001
273,0.3367471396923065,0.44197583198547363,1.0,0.87,0.001
274,0.3365079164505005,0.44183361530303955,1.0,0.87,0.001
275,0.3363071084022522,0.4415885806083679,1.0,0.87,0.001
276,0.33611923456192017,0.4426348805427551,1.0,0.88,0.001
277,0.33590447902679443,0.4421098828315735,1.0,0.87,0.001
278,0.33569416403770447,0.4413354992866516,1.0,0.87,0.001
279,0.3354523777961731,0.44120121002197266,1.0,0.87,0.001
280,0.3352276086807251,0.4423108696937561,1.0,0.88,0.001
281,0.33500057458877563,0.4418502748012543,1.0,0.88,0.001
282,0.3347744643688202,0.44080960750579834,1.0,0.87,0.001
283,0.3345741927623749,0.44119346141815186,1.0,0.87,0.001
284,0.3343944549560547,0.44169798493385315,1.0,0.88,0.001
285,0.33426573872566223,0.44161510467529297,1.0,0.88,0.001
286,0.33412882685661316,0.4405893087387085,1.0,0.87,0.001
287,0.33400067687034607,0.44164490699768066,1.0,0.88,0.001
288,0.33383628726005554,0.4409915506839752,1.0,0.87,0.001
289,0.3335689604282379,0.4401721656322479,1.0,0.87,0.001
290,0.3332832455635071,0.4400918483734131,1.0,0.87,0.001
291,0.33305397629737854,0.4411960542201996,1.0,0.88,0.001
292,0.33287617564201355,0.44077205657958984,1.0,0.88,0.001
293,0.33275657892227173,0.43982312083244324,1.0,0.87,0.001
294,0.33269795775413513,0.4402185082435608,1.0,0.88,0.001
295,0.3326112627983093,0.4404504895210266,1.0,0.87,0.001
296,0.3323998749256134,0.4411048889160156,1.0,0.88,0.001
297,0.33207592368125916,0.44001227617263794,1.0,0.88,0.001
298,0.3318439722061157,0.4396665096282959,1.0,0.88,0.001
299,0.3317347764968872,0.4399770498275757,1.0,0.88,0.001
300,0.3317229449748993,0.43925991654396057,1.0,0.87,0.001
301,0.33161500096321106,0.44028910994529724,1.0,0.88,0.001
302,0.3313820958137512,0.4392797350883484,1.0,0.87,0.001
303,0.3310902416706085,0.43922728300094604,1.0,0.88,0.001
304,0.33088356256484985,0.43918460607528687,1.0,0.88,0.001
305,0.3308073878288269,0.4397718906402588,1.0,0.88,0.001
306,0.3308195471763611,0.43893593549728394,1.0,0.88,0.001
307,0.33072933554649353,0.43845871090888977,1.0,0.87,0.001
308,0.33042603731155396,0.4389216899871826,1.0,0.88,0.001
309,0.3301622271537781,0.43903040885925293,1.0,0.88,0.001
310,0.33001944422721863,0.4385720491409302,1.0,0.88,0.001
311,0.3299749791622162,0.43788543343544006,1.0,0.88,0.001
312,0.32984694838523865,0.437343567609787,1.0,0.87,0.001
313,0.3296439051628113,0.43907395005226135,1.0,0.88,0.001
314,0.32945874333381653,0.4399549067020416,1.0,0.88,0.001
315,0.32932350039482117,0.43762630224227905,1.0,0.88,0.001
316,0.3291773498058319,0.43691250681877136,1.0,0.88,0.001
317,0.329076886177063,0.4383144676685333,1.0,0.88,0.001
318,0.3289434015750885,0.43886810541152954,1.0,0.88,0.001
319,0.3288331925868988,0.4371498227119446,1.0,0.88,0.001
320,0.3287001848220825,0.4371090233325958,1.0,0.88,0.001
321,0.3285607099533081,0.43866825103759766,1.0,0.88,0.001
322,0.328441858291626,0.43729186058044434,1.0,0.88,0.001
323,0.3283028304576874,0.4365236163139343,1.0,0.88,0.001
324,0.32819226384162903,0.4372016191482544,1.0,0.88,0.001
325,0.3280488848686218,0.4376559853553772,1.0,0.88,0.001
326,0.32793328166007996,0.4369579255580902,1.0,0.88,0.001
327,0.3278139531612396,0.43708541989326477,1.0,0.88,0.001
328,0.3276881277561188,0.4364745616912842,1.0,0.88,0.001
329,0.32758209109306335,0.4369666576385498,1.0,0.88,0.001
330,0.32746535539627075,0.43708619475364685,1.0,0.88,0.001
331,0.32736560702323914,0.4370690882205963,1.0,0.88,0.001
332,0.3272778391838074,0.43621399998664856,1.0,0.87,0.001
333,0.32722264528274536,0.43620437383651733,1.0,0.88,0.001
334,0.3271642327308655,0.43748795986175537,1.0,0.88,0.001
335,0.3270741403102875,0.4380400776863098,1.0,0.88,0.001
336,0.3269154727458954,0.4357326924800873,1.0,0.88,0.001
337,0.32674118876457214,0.43554767966270447,1.0,0.88,0.001
338,0.32661303877830505,0.43731939792633057,1.0,0.88,0.001
339,0.32653114199638367,0.43711480498313904,1.0,0.88,0.001
340,0.32650020718574524,0.4354647397994995,1.0,0.88,0.001
341,0.32640889286994934,0.4349270164966583,1.0,0.88,0.001
342,0.32628172636032104,0.43720871210098267,1.0,0.88,0.001
343,0.3261292576789856,0.436850368976593,1.0,0.88,0.001
344,0.3260119557380676,0.435233473777771,1.0,0.88,0.001
345,0.32592636346817017,0.43515652418136597,1.0,0.88,0.001
346,0.32586097717285156,0.43607544898986816,1.0,0.88,0.001
347,0.32578644156455994,0.43680840730667114,1.0,0.88,0.001
348,0.3256840407848358,0.43531695008277893,1.0,0.88,0.001
349,0.3255666494369507,0.4349891245365143,1.0,0.88,0.001
350,0.32544898986816406,0.4348665475845337,1.0,0.88,0.001
351,0.325377494096756,0.4362882971763611,1.0,0.88,0.001
352,0.32530879974365234,0.43518301844596863,1.0,0.88,0.001
353,0.32523196935653687,0.43465790152549744,1.0,0.88,0.001
354,0.32513508200645447,0.43490687012672424,1.0,0.88,0.001
355,0.32503220438957214,0.4354512691497803,1.0,0.88,0.001
356,0.32492926716804504,0.4350779056549072,1.0,0.88,0.001
357,0.32483604550361633,0.4348337948322296,1.0,0.88,0.001
358,0.3247593939304352,0.4345795810222626,1.0,0.88,0.001
359,0.32468900084495544,0.4351753890514374,1.0,0.88,0.001
360,0.3246347904205322,0.43435680866241455,1.0,0.88,0.001
361,0.3245604336261749,0.4344799816608429,1.0,0.88,0.001
362,0.32446879148483276,0.435126394033432,1.0,0.88,0.001
363,0.3243728280067444,0.43428581953048706,1.0,0.88,0.001
364,0.3242720365524292,0.43412458896636963,1.0,0.88,0.001
365,0.32419463992118835,0.43474048376083374,1.0,0.88,0.001
366,0.32412129640579224,0.434469610452652,1.0,0.88,0.001
367,0.3240526616573334,0.43405044078826904,1.0,0.88,0.001
368,0.3239845931529999,0.43407538533210754,1.0,0.88,0.001
369,0.3239036202430725,0.4337772727012634,1.0,0.88,0.001
370,0.3238261342048645,0.4346528947353363,1.0,0.88,0.001
371,0.3237473964691162,0.43417903780937195,1.0,0.88,0.001
372,0.32367637753486633,0.43312621116638184,1.0,0.88,0.001
373,0.32360658049583435,0.4337460994720459,1.0,0.88,0.001
374,0.3235338628292084,0.4350717067718506,1.0,0.88,0.001
375,0.3234635591506958,0.4333675503730774,1.0,0.88,0.001
376,0.3233965039253235,0.43283072113990784,1.0,0.88,0.001
377,0.3233376741409302,0.4340475797653198,1.0,0.88,0.001
378,0.32330963015556335,0.4341541528701782,1.0,0.88,0.001
379,0.3232945501804352,0.4344046413898468,1.0,0.88,0.001
380,0.3232274353504181,0.4330765902996063,1.0,0.88,0.001
381,0.3230856955051422,0.4329372048377991,1.0,0.88,0.001
382,0.32299578189849854,0.4341248571872711,1.0,0.88,0.001
383,0.322952002286911,0.43423718214035034,1.0,0.88,0.001
384,0.32292693853378296,0.4325826168060303,1.0,0.88,0.001
385,0.3228633403778076,0.43262219429016113,1.0,0.88,0.001
386,0.32277271151542664,0.4338395297527313,1.0,0.88,0.001
387,0.3226807415485382,0.4340287744998932,1.0,0.88,0.001
388,0.32261335849761963,0.43303221464157104,1.0,0.88,0.001
389,0.3225648105144501,0.432710736989975,1.0,0.88,0.001
390,0.322531133890152,0.4328232705593109,1.0,0.88,0.001
391,0.32247188687324524,0.43469002842903137,1.0,0.88,0.001
392,0.32239970564842224,0.4332829415798187,1.0,0.88,0.001
393,0.3223179280757904,0.4323975443840027,1.0,0.88,0.001
394,0.3222518861293793,0.43275079131126404,1.0,0.88,0.001
395,0.322205126285553,0.43353188037872314,1.0,0.88,0.001
396,0.3221501111984253,0.4341575503349304,1.0,0.88,0.001
397,0.3220871090888977,0.43201160430908203,1.0,0.88,0.001
398,0.3220274746417999,0.43200743198394775,1.0,0.88,0.001
399,0.32196810841560364,0.43350687623023987,1.0,0.88,0.001
400,0.3219050467014313,0.4336806535720825,1.0,0.88,0.001
401,0.3218519687652588,0.4318273663520813,1.0,0.88,0.001
402,0.3217920660972595,0.43235015869140625,1.0,0.88,0.001
403,0.3217415511608124,0.4333757758140564,1.0,0.88,0.001
404,0.3216966390609741,0.43294236063957214,1.0,0.88,0.001
405,0.3216494023799896,0.4320869743824005,1.0,0.88,0.001
406,0.3216034173965454,0.4325103759765625,1.0,0.88,0.001
407,0.32154780626296997,0.43315696716308594,1.0,0.88,0.001
408,0.3214864432811737,0.4324232041835785,1.0,0.88,0.001
409,0.3214276432991028,0.4321749806404114,1.0,0.88,0.001
410,0.3213762938976288,0.4322659373283386,1.0,0.88,0.001
411,0.32133951783180237,0.43232277035713196,1.0,0.88,0.001
412,0.32130447030067444,0.4322708249092102,1.0,0.88,0.001
413,0.3212595283985138,0.4329226016998291,1.0,0.88,0.001
414,0.32119980454444885,0.43277546763420105,1.0,0.88,0.001
415,0.32114142179489136,0.4315161406993866,1.0,0.88,0.001
416,0.3210800886154175,0.43228670954704285,1.0,0.88,0.001
417,0.3210296332836151,0.43216586112976074,1.0,0.88,0.001
418,0.32098639011383057,0.4324988126754761,1.0,0.88,0.001
419,0.32094454765319824,0.4324883222579956,1.0,0.88,0.001
420,0.3208954334259033,0.4319485127925873,1.0,0.88,0.001
421,0.32085415720939636,0.4319259226322174,1.0,0.88,0.001
422,0.320809930562973,0.4322017431259155,1.0,0.88,0.001
423,0.32076287269592285,0.43227091431617737,1.0,0.88,0.001
424,0.32072123885154724,0.43192213773727417,1.0,0.88,0.001
425,0.3206765353679657,0.4316682815551758,1.0,0.88,0.001
426,0.32063359022140503,0.43225276470184326,1.0,0.88,0.001
427,0.320587158203125,0.4322495758533478,1.0,0.88,0.001
428,0.3205417990684509,0.43120723962783813,1.0,0.88,0.001
429,0.32049334049224854,0.4312085211277008,1.0,0.88,0.001
430,0.320451557636261,0.43203261494636536,1.0,0.88,0.001
431,0.3204127252101898,0.4319179952144623,1.0,0.88,0.001
432,0.32037097215652466,0.4312954843044281,1.0,0.88,0.001
433,0.3203277885913849,0.4319142997264862,1.0,0.88,0.001
434,0.32028427720069885,0.43226227164268494,1.0,0.88,0.001
435,0.3202458322048187,0.4320935010910034,1.0,0.88,0.001
436,0.32020556926727295,0.43118953704833984,1.0,0.88,0.001
437,0.32016804814338684,0.4315384328365326,1.0,0.88,0.001
438,0.3201346695423126,0.43208494782447815,1.0,0.88,0.001
439,0.3200971186161041,0.43194153904914856,1.0,0.88,0.001
440,0.3200635015964508,0.43132078647613525,1.0,0.88,0.001
441,0.32002145051956177,0.4318905770778656,1.0,0.88,0.001
442,0.3199767768383026,0.43223774433135986,1.0,0.88,0.001
443,0.31993451714515686,0.4321736991405487,1.0,0.88,0.001
444,0.31989142298698425,0.4312410056591034,1.0,0.88,0.001
445,0.31985270977020264,0.431061327457428,1.0,0.88,0.001
446,0.31982219219207764,0.43253207206726074,1.0,0.88,0.001
447,0.3197934925556183,0.43216490745544434,1.0,0.88,0.001
448,0.31975969672203064,0.43147337436676025,1.0,0.88,0.001
449,0.3197230398654938,0.431320458650589,1.0,0.88,0.001
450,0.3196818232536316,0.431880921125412,1.0,0.88,0.001
451,0.31963813304901123,0.4321799576282501,1.0,0.88,0.001
452,0.31959861516952515,0.4319734573364258,1.0,0.88,0.001
453,0.31956207752227783,0.4311441481113434,1.0,0.88,0.001
454,0.31952863931655884,0.43128931522369385,1.0,0.88,0.001
455,0.31949880719184875,0.432716965675354,1.0,0.88,0.001
456,0.3194696307182312,0.4327194094657898,1.0,0.88,0.001
457,0.3194335699081421,0.4311852753162384,1.0,0.88,0.001
458,0.3193883001804352,0.4312407970428467,1.0,0.88,0.001
459,0.3193568289279938,0.4323461055755615,1.0,0.88,0.001
460,0.3193250596523285,0.4325864315032959,1.0,0.88,0.001
461,0.3193008005619049,0.4314284920692444,1.0,0.88,0.001
462,0.3192667067050934,0.4306613802909851,1.0,0.88,0.001
463,0.3192256987094879,0.4319151043891907,1.0,0.88,0.001
464,0.3191899359226227,0.4325163662433624,1.0,0.88,0.001
465,0.31915712356567383,0.4317280948162079,1.0,0.88,0.001
466,0.3191261291503906,0.43091219663619995,1.0,0.88,0.001
467,0.3190954923629761,0.43189892172813416,1.0,0.88,0.001
468,0.3190605640411377,0.4319796860218048,1.0,0.88,0.001
469,0.31902724504470825,0.43189239501953125,1.0,0.88,0.001
470,0.3189981281757355,0.4310953617095947,1.0,0.88,0.001
471,0.31897255778312683,0.4315034747123718,1.0,0.88,0.001
472,0.3189493417739868,0.43263813853263855,1.0,0.88,0.001
473,0.3189224898815155,0.43202468752861023,1.0,0.88,0.001
474,0.3188808560371399,0.4308207631111145,1.0,0.88,0.001
475,0.31884539127349854,0.4316377639770508,1.0,0.88,0.001
476,0.3188193440437317,0.43218716979026794,1.0,0.88,0.001
477,0.31880128383636475,0.4318096935749054,1.0,0.88,0.001
478,0.3187701106071472,0.4305364191532135,1.0,0.88,0.001
479,0.31873321533203125,0.4316663444042206,1.0,0.88,0.001
480,0.318701833486557,0.43237340450286865,1.0,0.88,0.001
481,0.3186710774898529,0.43164047598838806,1.0,0.88,0.001
482,0.31864622235298157,0.4301934540271759,1.0,0.88,0.001
483,0.318619042634964,0.4313562512397766,1.0,0.88,0.001
484,0.3185907304286957,0.43304839730262756,1.0,0.88,0.001
485,0.3185642957687378,0.43166568875312805,1.0,0.88,0.001
486,0.31853610277175903,0.43015003204345703,1.0,0.88,0.001
487,0.3185104727745056,0.4315297603607178,1.0,0.88,0.001
488,0.3184877634048462,0.43336963653564453,1.0,0.88,0.001
489,0.3184633255004883,0.4314982295036316,1.0,0.88,0.001
490,0.31843340396881104,0.43045341968536377,1.0,0.88,0.001
491,0.3184047341346741,0.4313841760158539,1.0,0.88,0.001
492,0.31837618350982666,0.43266624212265015,1.0,0.88,0.001
493,0.3183495104312897,0.43230631947517395,1.0,0.88,0.001
494,0.3183251917362213,0.43062329292297363,1.0,0.88,0.001
495,0.3182959258556366,0.43083781003952026,1.0,0.88,0.001
496,0.31827351450920105,0.43256744742393494,1.0,0.88,0.001
497,0.3182462751865387,0.4325401782989502,1.0,0.88,0.001
498,0.3182274103164673,0.4301968514919281,1.0,0.88,0.001
499,0.31820303201675415,0.43083134293556213,1.0,0.88,0.001
500,0.31818026304244995,0.43290600180625916,1.0,0.88,0.001
501,0.31815439462661743,0.43192318081855774,1.0,0.88,0.001
502,0.31812378764152527,0.43054473400115967,1.0,0.88,0.001
503,0.31809890270233154,0.43079957365989685,1.0,0.88,0.001
504,0.3180798590183258,0.4322018325328827,1.0,0.88,0.001
505,0.3180640935897827,0.43256035447120667,1.0,0.88,0.001
506,0.3180365264415741,0.431172639131546,1.0,0.88,0.001
507,0.3180031180381775,0.4301227927207947,1.0,0.88,0.001
508,0.31797829270362854,0.43149101734161377,1.0,0.88,0.001
509,0.3179662823677063,0.4313493072986603,1.0,0.88,0.001
510,0.31795454025268555,0.43232405185699463,1.0,0.88,0.001
511,0.31792527437210083,0.43099597096443176,1.0,0.88,0.001
512,0.3178909420967102,0.43065202236175537,1.0,0.88,0.001
513,0.3178669810295105,0.4315652549266815,1.0,0.88,0.001
514,0.3178466558456421,0.4314141869544983,1.0,0.88,0.001
515,0.31782761216163635,0.43104875087738037,1.0,0.88,0.001
516,0.31780582666397095,0.43036025762557983,1.0,0.88,0.001
517,0.3177787661552429,0.43126919865608215,1.0,0.88,0.001
518,0.31775379180908203,0.4319102168083191,1.0,0.88,0.001
519,0.317734032869339,0.43131932616233826,1.0,0.88,0.001
520,0.31771495938301086,0.430358350276947,1.0,0.88,0.001
521,0.317696750164032,0.43021124601364136,1.0,0.88,0.001
522,0.3176744282245636,0.4319758713245392,1.0,0.88,0.001
523,0.31764838099479675,0.43182459473609924,1.0,0.88,0.001
524,0.3176281750202179,0.4309682548046112,1.0,0.88,0.001
525,0.3176109790802002,0.430411159992218,1.0,0.88,0.001
526,0.31760111451148987,0.4306255280971527,1.0,0.88,0.001
527,0.31758296489715576,0.43230366706848145,1.0,0.88,0.001
528,0.31755343079566956,0.43046724796295166,1.0,0.88,0.001
529,0.3175259828567505,0.42997145652770996,1.0,0.88,0.001
530,0.31750738620758057,0.4308820962905884,1.0,0.88,0.001
531,0.3174959123134613,0.43098270893096924,1.0,0.88,0.001
532,0.3174785077571869,0.43128639459609985,1.0,0.88,0.001
533,0.31745457649230957,0.431003212928772,1.0,0.88,0.001
534,0.31743040680885315,0.4304298758506775,1.0,0.88,0.001
535,0.3174114227294922,0.43062102794647217,1.0,0.88,0.001
536,0.31739944219589233,0.43075495958328247,1.0,0.88,0.001
537,0.3173827826976776,0.4311307966709137,1.0,0.88,0.001
538,0.3173605799674988,0.43014562129974365,1.0,0.88,0.001
539,0.31733283400535583,0.43043380975723267,1.0,0.88,0.001
540,0.3173210620880127,0.4312824606895447,1.0,0.88,0.001
541,0.317309707403183,0.43072062730789185,1.0,0.88,0.001
542,0.3172893524169922,0.43058526515960693,1.0,0.88,0.001
543,0.3172641694545746,0.43027976155281067,1.0,0.88,0.001
544,0.31724417209625244,0.4306420385837555,1.0,0.88,0.001
545,0.3172275125980377,0.43130558729171753,1.0,0.88,0.001
546,0.31720873713493347,0.43083399534225464,1.0,0.88,0.001
547,0.317190557718277,0.4303378164768219,1.0,0.88,0.001
548,0.31717216968536377,0.430154949426651,1.0,0.88,0.001
549,0.31715333461761475,0.4308381676673889,1.0,0.88,0.001
550,0.3171386420726776,0.4308100640773773,1.0,0.88,0.001
551,0.3171272575855255,0.4304533898830414,1.0,0.88,0.001
552,0.3171097934246063,0.4310219883918762,1.0,0.88,0.001
553,0.3170897662639618,0.43075835704803467,1.0,0.88,0.001
554,0.3170676529407501,0.4304494559764862,1.0,0.88,0.001
555,0.31705209612846375,0.4309108257293701,1.0,0.88,0.001
556,0.3170396089553833,0.4305577874183655,1.0,0.88,0.001
557,0.3170269727706909,0.4306323528289795,1.0,0.88,0.001
558,0.31700703501701355,0.4305891692638397,1.0,0.88,0.001
559,0.31698474287986755,0.43084582686424255,1.0,0.88,0.001
560,0.316968709230423,0.4311327636241913,1.0,0.88,0.001
561,0.3169555068016052,0.43014031648635864,1.0,0.88,0.001
562,0.31693965196609497,0.4301240146160126,1.0,0.88,0.001
563,0.31692275404930115,0.4310278296470642,1.0,0.88,0.001
564,0.3169056177139282,0.43141502141952515,1.0,0.88,0.001
565,0.3168889582157135,0.43091633915901184,1.0,0.88,0.001
566,0.31687435507774353,0.43010464310646057,1.0,0.88,0.001
567,0.31686103343963623,0.43136924505233765,1.0,0.88,0.001
568,0.31684187054634094,0.4314330816268921,1.0,0.88,0.001
569,0.31682485342025757,0.43010878562927246,1.0,0.88,0.001
570,0.3168095648288727,0.43028557300567627,1.0,0.88,0.001
571,0.31679481267929077,0.4311012029647827,1.0,0.88,0.001
572,0.31678012013435364,0.43143853545188904,1.0,0.88,0.001
573,0.316764235496521,0.43035927414894104,1.0,0.88,0.001
574,0.31675028800964355,0.430618554353714,1.0,0.88,0.001
575,0.31673428416252136,0.4311377704143524,1.0,0.88,0.001
576,0.3167179822921753,0.4307875335216522,1.0,0.88,0.001
577,0.3167034089565277,0.4309372007846832,1.0,0.88,0.001
578,0.31669074296951294,0.43029388785362244,1.0,0.88,0.001
579,0.3166750967502594,0.43020913004875183,1.0,0.88,0.001
580,0.3166617453098297,0.4314172863960266,1.0,0.88,0.001
581,0.31664854288101196,0.43140900135040283,1.0,0.88,0.001
582,0.31663447618484497,0.43063342571258545,1.0,0.88,0.001
583,0.31662049889564514,0.4301811158657074,1.0,0.88,0.001
584,0.3166082501411438,0.431273490190506,1.0,0.88,0.001
585,0.31659403443336487,0.4312971532344818,1.0,0.88,0.001
586,0.31657639145851135,0.43077030777931213,1.0,0.88,0.001
587,0.316562682390213,0.43033379316329956,1.0,0.88,0.001
588,0.3165488541126251,0.4305010139942169,1.0,0.88,0.001
589,0.3165343403816223,0.43100041151046753,1.0,0.88,0.001
590,0.3165215253829956,0.4307156801223755,1.0,0.88,0.001
591,0.31650933623313904,0.4302968680858612,1.0,0.88,0.001
592,0.31649720668792725,0.43058571219444275,1.0,0.88,0.001
593,0.31648048758506775,0.4315071105957031,1.0,0.88,0.001
594,0.3164672553539276,0.43047940731048584,1.0,0.88,0.001
595,0.3164554834365845,0.4298783540725708,1.0,0.88,0.001
596,0.3164459764957428,0.43114471435546875,1.0,0.88,0.001
597,0.3164317011833191,0.4304250478744507,1.0,0.88,0.001
598,0.31641697883605957,0.43147507309913635,1.0,0.88,0.001
599,0.31640198826789856,0.43072274327278137,1.0,0.88,0.001
600,0.31639155745506287,0.4303622841835022,1.0,0.88,0.001
601,0.3163803815841675,0.4303559958934784,1.0,0.88,0.001
602,0.3163663148880005,0.4305751323699951,1.0,0.88,0.001
603,0.31635478138923645,0.4309917390346527,1.0,0.88,0.001
604,0.31634053587913513,0.4305124282836914,1.0,0.88,0.001
605,0.3163292407989502,0.43006882071495056,1.0,0.88,0.001
606,0.31631696224212646,0.4308473467826843,1.0,0.88,0.001
607,0.3163064420223236,0.4306149184703827,1.0,0.88,0.001
608,0.3162931501865387,0.43039676547050476,1.0,0.88,0.001
609,0.3162810802459717,0.4306700825691223,1.0,0.88,0.001
610,0.3162675201892853,0.4307672381401062,1.0,0.88,0.001
611,0.31625473499298096,0.4303745925426483,1.0,0.88,0.001
612,0.31624212861061096,0.43123459815979004,1.0,0.88,0.001
613,0.3162311315536499,0.4301326274871826,1.0,0.88,0.001
614,0.3162204325199127,0.43006888031959534,1.0,0.88,0.001
615,0.31620731949806213,0.43062007427215576,1.0,0.88,0.001
616,0.3161963224411011,0.43053576350212097,1.0,0.88,0.001
617,0.3161849081516266,0.43084630370140076,1.0,0.88,0.001
618,0.31617680191993713,0.43049365282058716,1.0,0.88,0.001
619,0.31616806983947754,0.4303515553474426,1.0,0.88,0.001
620,0.3161557912826538,0.43039801716804504,1.0,0.88,0.001
621,0.3161417841911316,0.43002575635910034,1.0,0.88,0.001
622,0.3161289691925049,0.43062442541122437,1.0,0.88,0.001
623,0.31612223386764526,0.43063050508499146,1.0,0.88,0.001
624,0.3161117434501648,0.43029770255088806,1.0,0.88,0.001
625,0.3160991370677948,0.4296931326389313,1.0,0.88,0.001
626,0.3160836696624756,0.4310053884983063,1.0,0.88,0.001
627,0.3160756826400757,0.4312409460544586,1.0,0.87,0.001
628,0.3160678744316101,0.42994555830955505,1.0,0.88,0.001
629,0.31605443358421326,0.4300152659416199,1.0,0.88,0.001
630,0.31604117155075073,0.4301462471485138,1.0,0.88,0.001
631,0.3160315752029419,0.4310685098171234,1.0,0.88,0.001
632,0.3160220682621002,0.430343359708786,1.0,0.88,0.001
633,0.3160095512866974,0.43015724420547485,1.0,0.88,0.001
634,0.315998375415802,0.4301764965057373,1.0,0.88,0.001
635,0.31598928570747375,0.43074262142181396,1.0,0.88,0.001
636,0.31597989797592163,0.43066269159317017,1.0,0.88,0.001
637,0.31596916913986206,0.42978888750076294,1.0,0.88,0.001
638,0.3159586787223816,0.4298597574234009,1.0,0.88,0.001
639,0.31594613194465637,0.4304048418998718,1.0,0.88,0.001
640,0.31593701243400574,0.43062764406204224,1.0,0.87,0.001
641,0.3159288465976715,0.4298969507217407,1.0,0.88,0.001
642,0.3159174919128418,0.4299248158931732,1.0,0.88,0.001
643,0.3159070909023285,0.43075981736183167,1.0,0.87,0.001
644,0.31589776277542114,0.4306604266166687,1.0,0.88,0.001
645,0.3158893883228302,0.4302561283111572,1.0,0.88,0.001
646,0.31588122248649597,0.429840087890625,1.0,0.88,0.001
647,0.31587132811546326,0.43058884143829346,1.0,0.87,0.001
648,0.31585893034935,0.4307612478733063,1.0,0.87,0.001
649,0.3158506155014038,0.42933979630470276,1.0,0.88,0.001
650,0.3158423602581024,0.43002262711524963,1.0,0.88,0.001
651,0.3158312737941742,0.4300408661365509,1.0,0.88,0.001
652,0.31582120060920715,0.43054255843162537,1.0,0.87,0.001
653,0.31581205129623413,0.430770605802536,1.0,0.87,0.001
654,0.3158054053783417,0.4298783838748932,1.0,0.88,0.001
655,0.3157966136932373,0.4298616349697113,1.0,0.88,0.001
656,0.31578582525253296,0.4302252233028412,1.0,0.87,0.001
657,0.31577572226524353,0.43038830161094666,1.0,0.87,0.001
658,0.31576815247535706,0.4303476810455322,1.0,0.87,0.001
659,0.31575968861579895,0.4300810694694519,1.0,0.87,0.001
660,0.3157487213611603,0.4303547143936157,1.0,0.87,0.001
661,0.31573885679244995,0.43059712648391724,1.0,0.87,0.001
662,0.3157306909561157,0.4302561283111572,1.0,0.87,0.001
663,0.3157225549221039,0.42986783385276794,1.0,0.87,0.001
664,0.3157135844230652,0.4300614297389984,1.0,0.87,0.001
665,0.31570470333099365,0.430813193321228,1.0,0.87,0.001
666,0.315695583820343,0.4307458996772766,1.0,0.87,0.001
667,0.3156868815422058,0.4299897253513336,1.0,0.87,0.001
668,0.31567704677581787,0.43021681904792786,1.0,0.87,0.001
669,0.3156687915325165,0.43092986941337585,1.0,0.87,0.001
670,0.31565970182418823,0.4302960932254791,1.0,0.87,0.001
671,0.3156513273715973,0.42992717027664185,1.0,0.87,0.001
672,0.31564369797706604,0.4299781322479248,1.0,0.87,0.001
673,0.31563591957092285,0.43061012029647827,1.0,0.87,0.001
674,0.31562721729278564,0.43020668625831604,1.0,0.87,0.001
675,0.3156183362007141,0.4304117262363434,1.0,0.87,0.001
676,0.3156088590621948,0.4303332269191742,1.0,0.87,0.001
677,0.3156011700630188,0.43009212613105774,1.0,0.87,0.001
678,0.3155958652496338,0.4305552542209625,1.0,0.87,0.001
679,0.31558865308761597,0.4301126003265381,1.0,0.87,0.001
680,0.31557735800743103,0.4306885898113251,1.0,0.88,0.001
681,0.3155692517757416,0.4299675226211548,1.0,0.87,0.001
682,0.31556200981140137,0.42947152256965637,1.0,0.87,0.001
683,0.3155563771724701,0.4306391477584839,1.0,0.88,0.001
684,0.3155481219291687,0.4307677149772644,1.0,0.88,0.001
685,0.31553640961647034,0.42964228987693787,1.0,0.87,0.001
686,0.3155285716056824,0.4298694133758545,1.0,0.87,0.001
687,0.3155217468738556,0.4300419092178345,1.0,0.87,0.001
688,0.31551364064216614,0.43068167567253113,1.0,0.88,0.001
689,0.31550416350364685,0.4308021664619446,1.0,0.88,0.001
690,0.3154984414577484,0.4295610189437866,1.0,0.87,0.001
691,0.3154946267604828,0.4294194281101227,1.0,0.87,0.001
692,0.315483421087265,0.43036648631095886,1.0,0.87,0.001
693,0.31547439098358154,0.43086373805999756,1.0,0.88,0.001
694,0.3154686987400055,0.43036001920700073,1.0,0.88,0.001
695,0.31546229124069214,0.4292738437652588,1.0,0.87,0.001
696,0.31545138359069824,0.4298560321331024,1.0,0.87,0.001
697,0.3154435157775879,0.4310866594314575,1.0,0.88,0.001
698,0.31543925404548645,0.4301292300224304,1.0,0.88,0.001
699,0.3154303729534149,0.42958930134773254,1.0,0.87,0.001
700,0.3154211640357971,0.430436372756958,1.0,0.88,0.001
701,0.31541556119918823,0.4298005998134613,1.0,0.87,0.001
702,0.3154086768627167,0.430572509765625,1.0,0.88,0.001
703,0.31540045142173767,0.4301227927207947,1.0,0.88,0.001
704,0.3153928220272064,0.4299159646034241,1.0,0.87,0.001
705,0.31538593769073486,0.4297521114349365,1.0,0.87,0.001
706,0.3153790831565857,0.43034398555755615,1.0,0.88,0.001
707,0.3153712749481201,0.43045422434806824,1.0,0.88,0.001
708,0.3153630793094635,0.4301924407482147,1.0,0.88,0.001
709,0.3153567612171173,0.4295687973499298,1.0,0.87,0.001
710,0.3153510093688965,0.4301777184009552,1.0,0.88,0.001
711,0.3153439462184906,0.4308203458786011,1.0,0.88,0.001
712,0.3153359591960907,0.43051689863204956,1.0,0.88,0.001
713,0.3153299391269684,0.4294218122959137,1.0,0.88,0.001
714,0.3153213560581207,0.4294223487377167,1.0,0.88,0.001
715,0.3153146803379059,0.4301895201206207,1.0,0.88,0.001
716,0.3153071999549866,0.4313508868217468,1.0,0.88,0.001
717,0.31530073285102844,0.43050795793533325,1.0,0.88,0.001
718,0.3152947425842285,0.4296790063381195,1.0,0.88,0.001
719,0.31528735160827637,0.42969590425491333,1.0,0.88,0.001
720,0.3152802884578705,0.43042975664138794,1.0,0.88,0.001
721,0.31527426838874817,0.4299132227897644,1.0,0.88,0.001
722,0.31526726484298706,0.4300689697265625,1.0,0.88,0.001
723,0.3152601718902588,0.4301057755947113,1.0,0.88,0.001
724,0.3152537941932678,0.4304424226284027,1.0,0.88,0.001
725,0.3152475357055664,0.42979660630226135,1.0,0.88,0.001
726,0.315241277217865,0.43007388710975647,1.0,0.88,0.001
727,0.3152340054512024,0.43013110756874084,1.0,0.88,0.001
728,0.315226674079895,0.4300253391265869,1.0,0.88,0.001
729,0.31522053480148315,0.42998024821281433,1.0,0.88,0.001
730,0.31521499156951904,0.4293275773525238,1.0,0.88,0.001
731,0.31520870327949524,0.43047893047332764,1.0,0.88,0.001
732,0.3152020573616028,0.43041178584098816,1.0,0.88,0.001
733,0.31519463658332825,0.4295945465564728,1.0,0.88,0.001
734,0.31518927216529846,0.4296180307865143,1.0,0.88,0.001
735,0.31518271565437317,0.4304938018321991,1.0,0.88,0.001
736,0.3151775896549225,0.4304741322994232,1.0,0.88,0.001
737,0.3151707351207733,0.4293380677700043,1.0,0.88,0.001
738,0.3151644170284271,0.42929232120513916,1.0,0.88,0.001
739,0.31515923142433167,0.4310232400894165,1.0,0.88,0.001
740,0.3151538670063019,0.43018555641174316,1.0,0.88,0.001
741,0.31514737010002136,0.42923980951309204,1.0,0.88,0.001
742,0.3151400089263916,0.4302610754966736,1.0,0.88,0.001
743,0.31513458490371704,0.43010783195495605,1.0,0.88,0.001
744,0.3151293992996216,0.43042850494384766,1.0,0.88,0.001
745,0.31512460112571716,0.42965853214263916,1.0,0.88,0.001
746,0.31511732935905457,0.4293961822986603,1.0,0.88,0.001
747,0.31511130928993225,0.43028926849365234,1.0,0.88,0.001
748,0.31510791182518005,0.4302919805049896,1.0,0.88,0.001
749,0.31510254740715027,0.4296344518661499,1.0,0.88,0.001
750,0.3150951564311981,0.42926040291786194,1.0,0.88,0.001
751,0.3150882422924042,0.43023666739463806,1.0,0.88,0.001
752,0.31508293747901917,0.4301590621471405,1.0,0.88,0.001
753,0.3150775134563446,0.43004676699638367,1.0,0.88,0.001
754,0.3150714635848999,0.4298314154148102,1.0,0.88,0.001
755,0.31506603956222534,0.4294469952583313,1.0,0.88,0.001
756,0.3150606155395508,0.4301450848579407,1.0,0.88,0.001
757,0.31505441665649414,0.4303654730319977,1.0,0.88,0.001
758,0.3150481879711151,0.43012404441833496,1.0,0.88,0.001
759,0.31504303216934204,0.42951956391334534,1.0,0.88,0.001
760,0.31503763794898987,0.4293365478515625,1.0,0.88,0.001
761,0.3150325119495392,0.42968887090682983,1.0,0.88,0.001
762,0.31502678990364075,0.43067508935928345,1.0,0.88,0.001
763,0.3150210678577423,0.4306885004043579,1.0,0.88,0.001
764,0.31501641869544983,0.42925870418548584,1.0,0.88,0.001
765,0.31501051783561707,0.42914512753486633,1.0,0.88,0.001
766,0.3150051236152649,0.43025192618370056,1.0,0.88,0.001
767,0.3149985373020172,0.4302682876586914,1.0,0.88,0.001
768,0.3149934709072113,0.42986151576042175,1.0,0.88,0.001
769,0.3149891495704651,0.42935892939567566,1.0,0.88,0.001
770,0.31498414278030396,0.4300142228603363,1.0,0.88,0.001
771,0.31497856974601746,0.43020614981651306,1.0,0.88,0.001
772,0.3149724304676056,0.42991673946380615,1.0,0.88,0.001
773,0.3149673044681549,0.4295239746570587,1.0,0.88,0.001
774,0.3149620592594147,0.4293357729911804,1.0,0.88,0.001
775,0.3149573504924774,0.4300011396408081,1.0,0.88,0.001
776,0.3149520754814148,0.43017178773880005,1.0,0.88,0.001
777,0.3149466812610626,0.42910927534103394,1.0,0.88,0.001
778,0.3149421513080597,0.4291333854198456,1.0,0.88,0.001
779,0.3149366080760956,0.4302152991294861,1.0,0.88,0.001
780,0.3149314820766449,0.4304935932159424,1.0,0.88,0.001
781,0.31492650508880615,0.43014171719551086,1.0,0.88,0.001
782,0.3149213492870331,0.4287617802619934,1.0,0.88,0.001
783,0.3149169683456421,0.4292239248752594,1.0,0.88,0.001
784,0.31491243839263916,0.43037208914756775,1.0,0.88,0.001
785,0.31490758061408997,0.43094712495803833,1.0,0.88,0.001
786,0.31490233540534973,0.42931362986564636,1.0,0.88,0.001
787,0.31489697098731995,0.42873549461364746,1.0,0.88,0.001
788,0.31489184498786926,0.42985057830810547,1.0,0.88,0.001
789,0.31488701701164246,0.4312644302845001,1.0,0.88,0.001
790,0.3148829936981201,0.4298619329929352,1.0,0.88,0.001
791,0.31487804651260376,0.4286144971847534,1.0,0.88,0.001
792,0.3148730397224426,0.42935851216316223,1.0,0.88,0.001
793,0.3148677945137024,0.4309174716472626,1.0,0.88,0.001
794,0.3148632347583771,0.4300788938999176,1.0,0.88,0.001
795,0.3148587942123413,0.42832809686660767,1.0,0.88,0.001
796,0.314853698015213,0.42973992228507996,1.0,0.88,0.001
797,0.3148488402366638,0.43034371733665466,1.0,0.88,0.001
798,0.3148441016674042,0.4303819537162781,1.0,0.88,0.001
799,0.3148399293422699,0.4289848208427429,1.0,0.88,0.001
800,0.3148353397846222,0.4297558069229126,1.0,0.88,0.001
801,0.3148300051689148,0.43010413646698,1.0,0.88,0.001
802,0.3148252069950104,0.42981240153312683,1.0,0.88,0.001
803,0.3148205280303955,0.4301096200942993,1.0,0.88,0.001
804,0.31481635570526123,0.4294273257255554,1.0,0.88,0.001
805,0.3148118853569031,0.4299257695674896,1.0,0.88,0.001
806,0.3148069977760315,0.4306103587150574,1.0,0.88,0.001
807,0.31480249762535095,0.4297908842563629,1.0,0.88,0.001
808,0.31479790806770325,0.42947277426719666,1.0,0.88,0.001
809,0.3147941529750824,0.43017497658729553,1.0,0.88,0.001
810,0.3147895336151123,0.4302680492401123,1.0,0.88,0.001
811,0.31478652358055115,0.42942991852760315,1.0,0.88,0.001
812,0.31478196382522583,0.4292844533920288,1.0,0.88,0.001
813,0.3147769868373871,0.42965438961982727,1.0,0.88,0.001
814,0.31477150321006775,0.43013665080070496,1.0,0.88,0.001
815,0.3147670030593872,0.4300948679447174,1.0,0.88,0.001
816,0.31476375460624695,0.42959025502204895,1.0,0.88,0.001
817,0.31475916504859924,0.4299546480178833,1.0,0.88,0.001
818,0.3147555887699127,0.42989686131477356,1.0,0.88,0.001
819,0.3147508502006531,0.4299192726612091,1.0,0.88,0.001
820,0.3147467374801636,0.42976775765419006,1.0,0.88,0.001
821,0.31474271416664124,0.4297849237918854,1.0,0.88,0.001
822,0.3147382438182831,0.4296134114265442,1.0,0.88,0.001
823,0.3147338926792145,0.4302215576171875,1.0,0.88,0.001
824,0.3147297203540802,0.4303005635738373,1.0,0.88,0.001
825,0.3147261142730713,0.42946815490722656,1.0,0.88,0.001
826,0.31472229957580566,0.42964088916778564,1.0,0.88,0.001
827,0.31471794843673706,0.42944374680519104,1.0,0.88,0.001
828,0.31471386551856995,0.4300737679004669,1.0,0.88,0.001
829,0.3147100508213043,0.430332750082016,1.0,0.88,0.001
830,0.31470629572868347,0.4296214282512665,1.0,0.88,0.001
831,0.3147025406360626,0.42948365211486816,1.0,0.88,0.001
832,0.31469759345054626,0.42988455295562744,1.0,0.88,0.001
833,0.31469330191612244,0.4305841028690338,1.0,0.88,0.001
834,0.31468960642814636,0.4303722381591797,1.0,0.88,0.001
835,0.3146853744983673,0.42913687229156494,1.0,0.88,0.001
836,0.31468135118484497,0.42976298928260803,1.0,0.88,0.001
837,0.31467780470848083,0.43056797981262207,1.0,0.88,0.001
838,0.31467384099960327,0.43008431792259216,1.0,0.88,0.001
839,0.3146703839302063,0.42939960956573486,1.0,0.88,0.001
840,0.31466636061668396,0.429690957069397,1.0,0.88,0.001
841,0.3146626353263855,0.43037956953048706,1.0,0.88,0.001
842,0.31465888023376465,0.42994922399520874,1.0,0.88,0.001
843,0.3146551251411438,0.42913809418678284,1.0,0.88,0.001
844,0.31465110182762146,0.42948490381240845,1.0,0.88,0.001
845,0.3146469295024872,0.4304734170436859,1.0,0.88,0.001
846,0.31464308500289917,0.4300256371498108,1.0,0.88,0.001
847,0.3146393895149231,0.42920729517936707,1.0,0.88,0.001
848,0.31463560461997986,0.4292259216308594,1.0,0.88,0.001
849,0.3146321177482605,0.430230975151062,1.0,0.88,0.001
850,0.3146284818649292,0.4300815165042877,1.0,0.88,0.001
851,0.31462469696998596,0.42923277616500854,1.0,0.88,0.001
852,0.31462058424949646,0.4297809600830078,1.0,0.88,0.001
853,0.3146165609359741,0.43001946806907654,1.0,0.88,0.001
854,0.3146129548549652,0.42976629734039307,1.0,0.88,0.001
855,0.3146093487739563,0.4295988380908966,1.0,0.88,0.001
856,0.3146056532859802,0.42982855439186096,1.0,0.88,0.001
857,0.31460246443748474,0.43046361207962036,1.0,0.88,0.001
858,0.3145989775657654,0.42973464727401733,1.0,0.88,0.001
859,0.31459513306617737,0.42925089597702026,1.0,0.88,0.001
860,0.3145913779735565,0.4302573800086975,1.0,0.88,0.001
861,0.3145889937877655,0.42963463068008423,1.0,0.88,0.001
862,0.31458544731140137,0.4300071597099304,1.0,0.88,0.001
863,0.314580500125885,0.42954403162002563,1.0,0.88,0.001
864,0.3145769536495209,0.4297923147678375,1.0,0.88,0.001
865,0.31457388401031494,0.4298568367958069,1.0,0.88,0.001
866,0.3145707845687866,0.42961612343788147,1.0,0.88,0.001
867,0.3145669102668762,0.43030861020088196,1.0,0.88,0.001
868,0.3145630955696106,0.4301823675632477,1.0,0.88,0.001
869,0.3145594000816345,0.42949745059013367,1.0,0.88,0.001
870,0.3145555853843689,0.42920199036598206,1.0,0.88,0.001
871,0.314552903175354,0.4300427734851837,1.0,0.88,0.001
872,0.3145490884780884,0.43049556016921997,1.0,0.88,0.001
873,0.3145454525947571,0.4300175905227661,1.0,0.88,0.001
874,0.3145422041416168,0.42903411388397217,1.0,0.88,0.001
875,0.3145390450954437,0.4299722909927368,1.0,0.88,0.001
876,0.31453558802604675,0.43057337403297424,1.0,0.88,0.001
877,0.31453314423561096,0.4303339421749115,1.0,0.88,0.001
878,0.31452974677085876,0.4293282628059387,1.0,0.88,0.001
879,0.3145265281200409,0.42975518107414246,1.0,0.88,0.001
880,0.31452301144599915,0.4300950765609741,1.0,0.88,0.001
881,0.3145194947719574,0.429739385843277,1.0,0.88,0.001
882,0.3145158290863037,0.4301905035972595,1.0,0.88,0.001
883,0.3145124018192291,0.42990535497665405,1.0,0.88,0.001
884,0.3145093023777008,0.43014952540397644,1.0,0.88,0.001
885,0.3145064413547516,0.42967456579208374,1.0,0.88,0.001
886,0.31450366973876953,0.4296136498451233,1.0,0.88,0.001
887,0.3145008981227875,0.43019482493400574,1.0,0.88,0.001
888,0.31449705362319946,0.42993831634521484,1.0,0.88,0.001
889,0.31449374556541443,0.4300357699394226,1.0,0.88,0.001
890,0.3144903779029846,0.429661363363266,1.0,0.88,0.001
891,0.314487099647522,0.43040311336517334,1.0,0.88,0.001
892,0.31448379158973694,0.42948979139328003,1.0,0.88,0.001
893,0.31448066234588623,0.4300878942012787,1.0,0.88,0.001
894,0.3144776523113251,0.4298965334892273,1.0,0.88,0.001
895,0.31447404623031616,0.4300294816493988,1.0,0.88,0.001
896,0.31447091698646545,0.4299147427082062,1.0,0.88,0.001
897,0.31446802616119385,0.43014541268348694,1.0,0.88,0.001
898,0.31446465849876404,0.4300379455089569,1.0,0.88,0.001
899,0.31446146965026855,0.4300304651260376,1.0,0.88,0.001
900,0.3144584894180298,0.4291883111000061,1.0,0.88,0.001
901,0.31445547938346863,0.4303647577762604,1.0,0.88,0.001
902,0.31445300579071045,0.43012291193008423,1.0,0.88,0.001
903,0.3144490718841553,0.4302007555961609,1.0,0.88,0.001
904,0.31444594264030457,0.42975902557373047,1.0,0.88,0.001
905,0.31444475054740906,0.42923545837402344,1.0,0.88,0.001
906,0.314441055059433,0.4305647909641266,1.0,0.88,0.001
907,0.31443729996681213,0.43092548847198486,1.0,0.88,0.001
908,0.3144352436065674,0.4293425381183624,1.0,0.88,0.001
909,0.31443268060684204,0.4294596016407013,1.0,0.88,0.001
910,0.31442850828170776,0.4298466444015503,1.0,0.88,0.001
911,0.3144257664680481,0.43058958649635315,1.0,0.88,0.001
912,0.3144230842590332,0.4305257499217987,1.0,0.88,0.001
913,0.31442025303840637,0.4292243719100952,1.0,0.88,0.001
914,0.314416766166687,0.42926204204559326,1.0,0.88,0.001
915,0.31441426277160645,0.43017712235450745,1.0,0.88,0.001
916,0.3144111633300781,0.43058300018310547,1.0,0.88,0.001
917,0.31440791487693787,0.42972657084465027,1.0,0.88,0.001
918,0.31440475583076477,0.42953386902809143,1.0,0.88,0.001
919,0.3144024908542633,0.43017327785491943,1.0,0.88,0.001
920,0.3143996596336365,0.4306456744670868,1.0,0.88,0.001
921,0.3143962323665619,0.4297000467777252,1.0,0.88,0.001
922,0.31439390778541565,0.4292936623096466,1.0,0.88,0.001
923,0.31439048051834106,0.4296526312828064,1.0,0.88,0.001
924,0.3143877387046814,0.43034932017326355,1.0,0.88,0.001
925,0.3143855333328247,0.43017634749412537,1.0,0.88,0.001
926,0.31438198685646057,0.429816335439682,1.0,0.88,0.001
927,0.31437960267066956,0.4297831356525421,1.0,0.88,0.001
928,0.31437617540359497,0.42959168553352356,1.0,0.88,0.001
929,0.3143734633922577,0.4298630654811859,1.0,0.88,0.001
930,0.3143713176250458,0.43072259426116943,1.0,0.88,0.001
931,0.31436848640441895,0.4301756024360657,1.0,0.88,0.001
932,0.31436508893966675,0.42944613099098206,1.0,0.88,0.001
933,0.31436222791671753,0.43002772331237793,1.0,0.88,0.001
934,0.3143593966960907,0.4294382333755493,1.0,0.88,0.001
935,0.3143569231033325,0.43029528856277466,1.0,0.88,0.001
936,0.31435447931289673,0.4302942156791687,1.0,0.88,0.001
937,0.31435173749923706,0.4301303029060364,1.0,0.88,0.001
938,0.3143484592437744,0.42973560094833374,1.0,0.88,0.001
939,0.31434574723243713,0.4296873211860657,1.0,0.88,0.001
940,0.3143429458141327,0.42980706691741943,1.0,0.88,0.001
941,0.3143404722213745,0.4301941394805908,1.0,0.88,0.001
942,0.314338356256485,0.430075079202652,1.0,0.88,0.001
943,0.3143354058265686,0.42955482006073,1.0,0.88,0.001
944,0.3143325448036194,0.430034339427948,1.0,0.88,0.001
945,0.314329594373703,0.42997464537620544,1.0,0.88,0.001
946,0.3143277168273926,0.42985695600509644,1.0,0.88,0.001
947,0.3143251836299896,0.4302264451980591,1.0,0.88,0.001
948,0.3143225908279419,0.43036171793937683,1.0,0.88,0.001
949,0.3143196105957031,0.429258793592453,1.0,0.88,0.001
950,0.3143174350261688,0.43009665608406067,1.0,0.88,0.001
951,0.31431514024734497,0.430075466632843,1.0,0.88,0.001
952,0.31431201100349426,0.430414080619812,1.0,0.88,0.001
953,0.3143090009689331,0.4294113516807556,1.0,0.88,0.001
954,0.31430691480636597,0.42982181906700134,1.0,0.88,0.001
955,0.314304381608963,0.4303326904773712,1.0,0.88,0.001
956,0.31430163979530334,0.4301493465900421,1.0,0.88,0.001
957,0.3142985701560974,0.429574579000473,1.0,0.88,0.001
958,0.3142961263656616,0.4302619993686676,1.0,0.88,0.001
959,0.3142942488193512,0.4296860992908478,1.0,0.88,0.001
960,0.31429192423820496,0.43003058433532715,1.0,0.88,0.001
961,0.31428906321525574,0.43001967668533325,1.0,0.88,0.001
962,0.314287006855011,0.4297976791858673,1.0,0.88,0.001
963,0.31428423523902893,0.4299347400665283,1.0,0.88,0.001
964,0.314281702041626,0.43047553300857544,1.0,0.88,0.001
965,0.3142792880535126,0.42987576127052307,1.0,0.88,0.001
966,0.314276784658432,0.43007805943489075,1.0,0.88,0.001
967,0.3142740726470947,0.43016475439071655,1.0,0.88,0.001
968,0.3142716884613037,0.4300743043422699,1.0,0.88,0.001
969,0.3142697215080261,0.4302666187286377,1.0,0.88,0.001
970,0.31426718831062317,0.429706335067749,1.0,0.88,0.001
971,0.31426528096199036,0.42985808849334717,1.0,0.88,0.001
972,0.31426286697387695,0.4307621121406555,1.0,0.88,0.001
973,0.3142603933811188,0.430353581905365,1.0,0.88,0.001
974,0.3142584264278412,0.4294891357421875,1.0,0.88,0.001
975,0.31425541639328003,0.4298812448978424,1.0,0.88,0.001
976,0.3142533004283905,0.43046319484710693,1.0,0.88,0.001
977,0.31425103545188904,0.43011242151260376,1.0,0.88,0.001
978,0.314248651266098,0.429940402507782,1.0,0.88,0.001
979,0.31424620747566223,0.42957213521003723,1.0,0.88,0.001
980,0.31424403190612793,0.43013861775398254,1.0,0.88,0.001
981,0.3142419755458832,0.4305192530155182,1.0,0.88,0.001
982,0.3142399787902832,0.4299083650112152,1.0,0.88,0.001
983,0.3142370879650116,0.4298483729362488,1.0,0.88,0.001
984,0.31423482298851013,0.43022608757019043,1.0,0.88,0.001
985,0.3142324388027191,0.43018943071365356,1.0,0.88,0.001
986,0.3142302632331848,0.4302838146686554,1.0,0.88,0.001
987,0.3142284154891968,0.4300069808959961,1.0,0.88,0.001
988,0.31422629952430725,0.42971742153167725,1.0,0.88,0.001
989,0.31422412395477295,0.43011870980262756,1.0,0.88,0.001
990,0.31422144174575806,0.43024489283561707,1.0,0.88,0.001
991,0.3142191171646118,0.4301503002643585,1.0,0.88,0.001
992,0.3142171800136566,0.4301359951496124,1.0,0.88,0.001
993,0.31421539187431335,0.42988431453704834,1.0,0.88,0.001
994,0.31421276926994324,0.42993929982185364,1.0,0.88,0.001
995,0.31421053409576416,0.43029117584228516,1.0,0.88,0.001
996,0.3142082691192627,0.4297824501991272,1.0,0.88,0.001
997,0.3142063617706299,0.4300738275051117,1.0,0.88,0.001
998,0.31420397758483887,0.43013596534729004,1.0,0.88,0.001
999,0.3142016530036926,0.4304282069206238,1.0,0.88,0.001
1000,0.31419965624809265,0.43018409609794617,1.0,0.88,0.001
1001,0.3141977787017822,0.4297831058502197,1.0,0.88,0.001
1002,0.3141957223415375,0.4300113022327423,1.0,0.88,0.001
1003,0.31419312953948975,0.42980533838272095,1.0,0.88,0.001
1004,0.3141911029815674,0.43006905913352966,1.0,0.88,0.001
1005,0.31418871879577637,0.4303726255893707,1.0,0.88,0.001
1006,0.31418654322624207,0.43010661005973816,1.0,0.88,0.001
1007,0.3141847848892212,0.4299730658531189,1.0,0.88,0.001
1008,0.3141826391220093,0.4300333261489868,1.0,0.88,0.001
1009,0.31418099999427795,0.4305356740951538,1.0,0.88,0.001
1010,0.3141785264015198,0.4301993250846863,1.0,0.88,0.001
1011,0.3141762614250183,0.42970848083496094,1.0,0.88,0.001
1012,0.31417450308799744,0.429859459400177,1.0,0.88,0.001
1013,0.31417280435562134,0.4301075339317322,1.0,0.88,0.001
1014,0.3141704797744751,0.4299714267253876,1.0,0.88,0.001
1015,0.31416818499565125,0.43042492866516113,1.0,0.88,0.001
1016,0.31416621804237366,0.4298994541168213,1.0,0.88,0.001
1017,0.3141641914844513,0.43000420928001404,1.0,0.88,0.001
1018,0.31416189670562744,0.42965972423553467,1.0,0.88,0.001
1019,0.31415966153144836,0.43019089102745056,1.0,0.88,0.001
1020,0.31415799260139465,0.43028345704078674,1.0,0.88,0.001
1021,0.31415602564811707,0.4301315248012543,1.0,0.88,0.001
1022,0.31415417790412903,0.4297271966934204,1.0,0.88,0.001
1023,0.31415173411369324,0.42983219027519226,1.0,0.88,0.001
1024,0.31415000557899475,0.4303819537162781,1.0,0.88,0.001
1025,0.31414783000946045,0.4303456246852875,1.0,0.88,0.001
1026,0.3141463100910187,0.429809033870697,1.0,0.88,0.001
1027,0.314144104719162,0.4293152093887329,1.0,0.88,0.001
1028,0.3141423761844635,0.43027541041374207,1.0,0.88,0.001
1029,0.3141403794288635,0.4298610985279083,1.0,0.88,0.001
1030,0.3141385018825531,0.4302372634410858,1.0,0.88,0.001
1031,0.3141363561153412,0.42996498942375183,1.0,0.88,0.001
1032,0.3141340911388397,0.4299747347831726,1.0,0.88,0.001
1033,0.31413233280181885,0.42999333143234253,1.0,0.88,0.001
1034,0.31413060426712036,0.4300301671028137,1.0,0.88,0.001
1035,0.31412839889526367,0.4301122725009918,1.0,0.88,0.001
1036,0.31412699818611145,0.42983201146125793,1.0,0.88,0.001
1037,0.31412509083747864,0.43013912439346313,1.0,0.88,0.001
1038,0.31412333250045776,0.42969879508018494,1.0,0.88,0.001
1039,0.31412118673324585,0.43001702427864075,1.0,0.88,0.001
1040,0.31411951780319214,0.4302166700363159,1.0,0.88,0.001
1041,0.31411734223365784,0.4299037456512451,1.0,0.88,0.001
1042,0.31411558389663696,0.4302346408367157,1.0,0.88,0.001
1043,0.31411391496658325,0.42998257279396057,1.0,0.88,0.001
1044,0.3141120374202728,0.42989102005958557,1.0,0.88,0.001
1045,0.3141103982925415,0.42990535497665405,1.0,0.88,0.001
1046,0.31410834193229675,0.43018779158592224,1.0,0.88,0.001
1047,0.3141064941883087,0.4301813542842865,1.0,0.88,0.001
1048,0.31410491466522217,0.4300203025341034,1.0,0.88,0.001
1049,0.31410276889801025,0.429824560880661,1.0,0.88,0.001
1050,0.31410089135169983,0.42966902256011963,1.0,0.88,0.001
1051,0.3140992224216461,0.43081775307655334,1.0,0.88,0.001
1052,0.31409743428230286,0.42983776330947876,1.0,0.88,0.001
1053,0.3140954077243805,0.42979758977890015,1.0,0.88,0.001
1054,0.3140935003757477,0.42972999811172485,1.0,0.88,0.001
1055,0.31409186124801636,0.4303058981895447,1.0,0.88,0.001
1056,0.3140897750854492,0.4305134117603302,1.0,0.88,0.001
1057,0.3140881657600403,0.42988207936286926,1.0,0.88,0.001
1058,0.31408581137657166,0.4297012984752655,1.0,0.88,0.001
1059,0.31408414244651794,0.4302384853363037,1.0,0.88,0.001
1060,0.3140823245048523,0.43045467138290405,1.0,0.88,0.001
1061,0.31408074498176575,0.42999106645584106,1.0,0.88,0.001
1062,0.31407880783081055,0.43018248677253723,1.0,0.88,0.001
1063,0.31407737731933594,0.4301203787326813,1.0,0.88,0.001
1064,0.31407609581947327,0.43017715215682983,1.0,0.88,0.001
1065,0.3140745162963867,0.4293574392795563,1.0,0.88,0.001
1066,0.31407198309898376,0.43010422587394714,1.0,0.88,0.001
1067,0.3140709400177002,0.43082180619239807,1.0,0.88,0.001
1068,0.3140692114830017,0.4301648437976837,1.0,0.88,0.001
1069,0.31406691670417786,0.42930689454078674,1.0,0.88,0.001
1070,0.3140663206577301,0.43015503883361816,1.0,0.88,0.001
1071,0.3140643835067749,0.430235356092453,1.0,0.88,0.001
1072,0.31406170129776,0.430206835269928,1.0,0.88,0.001
1073,0.31406092643737793,0.43041908740997314,1.0,0.88,0.001
1074,0.31405889987945557,0.42955631017684937,1.0,0.88,0.001
1075,0.31405672430992126,0.42995917797088623,1.0,0.88,0.001
1076,0.31405535340309143,0.4302246868610382,1.0,0.88,0.001
1077,0.31405389308929443,0.43008995056152344,1.0,0.88,0.001
1078,0.3140515983104706,0.4298173487186432,1.0,0.88,0.001
1079,0.31404992938041687,0.4303356111049652,1.0,0.88,0.001
1080,0.31404823064804077,0.4299004077911377,1.0,0.88,0.001
1081,0.3140464127063751,0.42997509241104126,1.0,0.88,0.001
1082,0.3140447735786438,0.43057453632354736,1.0,0.88,0.001
1083,0.3140433430671692,0.429988294839859,1.0,0.88,0.001
1084,0.31404173374176025,0.4302554428577423,1.0,0.88,0.001
1085,0.31403979659080505,0.4299272298812866,1.0,0.88,0.001
1086,0.31403809785842896,0.42987164855003357,1.0,0.88,0.001
1087,0.31403687596321106,0.430428147315979,1.0,0.88,0.001
1088,0.31403470039367676,0.42981961369514465,1.0,0.88,0.001
1089,0.31403300166130066,0.4302483797073364,1.0,0.88,0.001
1090,0.3140318989753723,0.43038854002952576,1.0,0.88,0.001
1091,0.3140299320220947,0.4304477274417877,1.0,0.88,0.001
1092,0.3140287697315216,0.42980918288230896,1.0,0.88,0.001
1093,0.3140273988246918,0.43017908930778503,1.0,0.88,0.001
1094,0.3140254318714142,0.43020519614219666,1.0,0.88,0.001
1095,0.3140240013599396,0.43017715215682983,1.0,0.88,0.001
1096,0.3140227198600769,0.4303741157054901,1.0,0.88,0.001
1097,0.3140209913253784,0.4297478199005127,1.0,0.88,0.001
1098,0.31401944160461426,0.4301053285598755,1.0,0.88,0.001
1099,0.3140179514884949,0.43053439259529114,1.0,0.88,0.001
1100,0.31401631236076355,0.43049582839012146,1.0,0.88,0.001
1101,0.314014732837677,0.42987892031669617,1.0,0.88,0.001
1102,0.3140132427215576,0.42977386713027954,1.0,0.88,0.001
1103,0.3140115439891815,0.43011629581451416,1.0,0.88,0.001
1104,0.3140101134777069,0.43028998374938965,1.0,0.88,0.001
1105,0.31400880217552185,0.43012455105781555,1.0,0.88,0.001
1106,0.314007043838501,0.42985811829566956,1.0,0.88,0.001
1107,0.3140053451061249,0.4299617111682892,1.0,0.88,0.001
1108,0.31400370597839355,0.43064793944358826,1.0,0.88,0.001
1109,0.314002126455307,0.43002063035964966,1.0,0.88,0.001
1110,0.3140003979206085,0.42991921305656433,1.0,0.88,0.001
1111,0.3139987587928772,0.42976459860801697,1.0,0.88,0.001
1112,0.3139975368976593,0.4301162362098694,1.0,0.88,0.001
1113,0.3139963448047638,0.4301508665084839,1.0,0.88,0.001
1114,0.31399497389793396,0.4301116466522217,1.0,0.88,0.001
1115,0.313993364572525,0.4300064146518707,1.0,0.88,0.001
1116,0.3139917254447937,0.43024349212646484,1.0,0.88,0.001
1117,0.31399035453796387,0.430484414100647,1.0,0.88,0.001
1118,0.3139890730381012,0.4297446310520172,1.0,0.88,0.001
1119,0.3139876425266266,0.42994415760040283,1.0,0.88,0.001
1120,0.3139861524105072,0.4310227632522583,1.0,0.88,0.001
1121,0.3139844536781311,0.43019405007362366,1.0,0.88,0.001
1122,0.3139829635620117,0.4295635223388672,1.0,0.88,0.001
1123,0.31398168206214905,0.42994844913482666,1.0,0.88,0.001
1124,0.31398019194602966,0.430370569229126,1.0,0.88,0.001
1125,0.3139784634113312,0.4307028651237488,1.0,0.88,0.001
1126,0.3139770030975342,0.43022024631500244,1.0,0.88,0.001
1127,0.31397542357444763,0.43008187413215637,1.0,0.88,0.001
1128,0.313974529504776,0.43011966347694397,1.0,0.88,0.001
1129,0.3139725923538208,0.43024957180023193,1.0,0.88,0.001
1130,0.31397125124931335,0.43031173944473267,1.0,0.88,0.001
1131,0.31396985054016113,0.43056124448776245,1.0,0.88,0.001
1132,0.313968300819397,0.4299120604991913,1.0,0.88,0.001
1133,0.3139668405056,0.4300527274608612,1.0,0.88,0.001
1134,0.3139655590057373,0.430893212556839,1.0,0.88,0.001
1135,0.31396427750587463,0.43056049942970276,1.0,0.88,0.001
1136,0.3139629065990448,0.42959025502204895,1.0,0.88,0.001
1137,0.313961386680603,0.43009093403816223,1.0,0.88,0.001
1138,0.3139601945877075,0.4307509660720825,1.0,0.88,0.001
1139,0.3139588236808777,0.4303458333015442,1.0,0.88,0.001
1140,0.31395697593688965,0.4297124445438385,1.0,0.88,0.001
1141,0.3139558732509613,0.4304027259349823,1.0,0.88,0.001
1142,0.31395450234413147,0.43056973814964294,1.0,0.88,0.001
1143,0.3139532208442688,0.4304755926132202,1.0,0.88,0.001
1144,0.3139517903327942,0.43014606833457947,1.0,0.88,0.001
1145,0.3139503002166748,0.4303681254386902,1.0,0.88,0.001
1146,0.3139491379261017,0.4304129481315613,1.0,0.88,0.001
1147,0.313947856426239,0.43020352721214294,1.0,0.88,0.001
1148,0.3139461576938629,0.43036091327667236,1.0,0.88,0.001
1149,0.3139447271823883,0.43030327558517456,1.0,0.88,0.001
1150,0.3139438331127167,0.43088677525520325,1.0,0.88,0.001
1151,0.31394219398498535,0.43038418889045715,1.0,0.88,0.001
1152,0.31394073367118835,0.429636687040329,1.0,0.88,0.001
1153,0.3139391541481018,0.4299956262111664,1.0,0.88,0.001
1154,0.31393811106681824,0.4306272864341736,1.0,0.88,0.001
1155,0.313936710357666,0.4307296872138977,1.0,0.88,0.001
1156,0.3139358460903168,0.4301590621471405,1.0,0.88,0.001
1157,0.313934326171875,0.42995524406433105,1.0,0.88,0.001
1158,0.31393301486968994,0.430579274892807,1.0,0.88,0.001
1159,0.3139316439628601,0.4307035505771637,1.0,0.88,0.001
1160,0.31393033266067505,0.4297422170639038,1.0,0.88,0.001
1161,0.3139289319515228,0.43029719591140747,1.0,0.88,0.001
1162,0.3139272928237915,0.4306350350379944,1.0,0.88,0.001
1163,0.3139260709285736,0.4306574761867523,1.0,0.88,0.001
1164,0.31392478942871094,0.4304772615432739,1.0,0.88,0.001
1165,0.31392377614974976,0.4300932288169861,1.0,0.88,0.001
1166,0.3139225244522095,0.43056076765060425,1.0,0.88,0.001
1167,0.31392067670822144,0.43057894706726074,1.0,0.88,0.001
1168,0.3139194846153259,0.43025830388069153,1.0,0.88,0.001
1169,0.31391826272010803,0.4304457902908325,1.0,0.88,0.001
1170,0.31391704082489014,0.43044960498809814,1.0,0.88,0.001
1171,0.31391602754592896,0.4306149184703827,1.0,0.88,0.001
1172,0.31391480565071106,0.4303652048110962,1.0,0.88,0.001
1173,0.31391316652297974,0.4304630160331726,1.0,0.88,0.001
1174,0.31391194462776184,0.4305410385131836,1.0,0.88,0.001
1175,0.31391093134880066,0.4304105043411255,1.0,0.88,0.001
1176,0.31390953063964844,0.43076691031455994,1.0,0.88,0.001
1177,0.3139082193374634,0.4303167760372162,1.0,0.88,0.001
1178,0.31390663981437683,0.43096089363098145,1.0,0.88,0.001
1179,0.3139055073261261,0.43066078424453735,1.0,0.88,0.001
1180,0.31390443444252014,0.43040457367897034,1.0,0.88,0.001
1181,0.31390318274497986,0.4304257929325104,1.0,0.88,0.001
1182,0.3139019012451172,0.4309231638908386,1.0,0.88,0.001
1183,0.31390079855918884,0.4305064380168915,1.0,0.88,0.001
1184,0.313899427652359,0.430031955242157,1.0,0.88,0.001
1185,0.31389811635017395,0.430803120136261,1.0,0.88,0.001
1186,0.3138967454433441,0.4307278096675873,1.0,0.88,0.001
1187,0.313895583152771,0.43080055713653564,1.0,0.88,0.001
1188,0.31389424204826355,0.4305104911327362,1.0,0.88,0.001
1189,0.3138931095600128,0.43046775460243225,1.0,0.88,0.001
1190,0.3138918876647949,0.4303334355354309,1.0,0.88,0.001
1191,0.31389090418815613,0.43053138256073,1.0,0.88,0.001
1192,0.31388989090919495,0.4304174780845642,1.0,0.88,0.001
1193,0.3138886094093323,0.4304499924182892,1.0,0.88,0.001
1194,0.313887357711792,0.43082401156425476,1.0,0.88,0.001
1195,0.31388580799102783,0.4310508668422699,1.0,0.88,0.001
1196,0.31388455629348755,0.4303605556488037,1.0,0.88,0.001
1197,0.31388333439826965,0.43022212386131287,1.0,0.88,0.001
1198,0.3138819932937622,0.430675208568573,1.0,0.88,0.001
1199,0.31388065218925476,0.4306105077266693,1.0,0.88,0.001
1200,0.31387975811958313,0.4305538833141327,1.0,0.88,0.001
1201,0.31387853622436523,0.43070632219314575,1.0,0.88,0.001
1202,0.313877135515213,0.4306967854499817,1.0,0.88,0.001
1203,0.3138761818408966,0.4303799867630005,1.0,0.88,0.001
1204,0.3138750493526459,0.43012481927871704,1.0,0.88,0.001
1205,0.3138740062713623,0.43070244789123535,1.0,0.88,0.001
1206,0.3138728439807892,0.4310976266860962,1.0,0.88,0.001
1207,0.31387150287628174,0.4302617609500885,1.0,0.88,0.001
1208,0.31387025117874146,0.4300667643547058,1.0,0.88,0.001
1209,0.3138692378997803,0.4311962127685547,1.0,0.88,0.001
1210,0.31386834383010864,0.4313157796859741,1.0,0.88,0.001
1211,0.31386736035346985,0.4303838610649109,1.0,0.88,0.001
1212,0.31386640667915344,0.4302358627319336,1.0,0.88,0.001
1213,0.31386473774909973,0.43076011538505554,1.0,0.88,0.001
1214,0.31386375427246094,0.4311971962451935,1.0,0.88,0.001
1215,0.31386253237724304,0.430490642786026,1.0,0.88,0.001
1216,0.31386181712150574,0.4301861822605133,1.0,0.88,0.001
1217,0.3138605058193207,0.4310928285121918,1.0,0.88,0.001
1218,0.31385937333106995,0.43082982301712036,1.0,0.88,0.001
1219,0.31385794281959534,0.43002423644065857,1.0,0.88,0.001
1220,0.31385719776153564,0.4305952489376068,1.0,0.88,0.001
1221,0.3138561546802521,0.4309542179107666,1.0,0.88,0.001
1222,0.31385475397109985,0.43115341663360596,1.0,0.88,0.001
1223,0.3138536214828491,0.43046677112579346,1.0,0.88,0.001
1224,0.31385260820388794,0.4303275942802429,1.0,0.88,0.001
1225,0.3138514459133148,0.4312022030353546,1.0,0.88,0.001
1226,0.3138503134250641,0.4310411810874939,1.0,0.88,0.001
1227,0.31384938955307007,0.43078720569610596,1.0,0.88,0.001
1228,0.31384822726249695,0.4299611747264862,1.0,0.88,0.001
1229,0.31384697556495667,0.43114781379699707,1.0,0.88,0.001
1230,0.31384608149528503,0.431301474571228,1.0,0.88,0.001
1231,0.31384509801864624,0.4307096600532532,1.0,0.88,0.001
1232,0.31384408473968506,0.4304286539554596,1.0,0.88,0.001
1233,0.3138429522514343,0.4307206869125366,1.0,0.88,0.001
1234,0.31384196877479553,0.43125027418136597,1.0,0.88,0.001
1235,0.3138407766819,0.4310637414455414,1.0,0.88,0.001
1236,0.31384000182151794,0.43020156025886536,1.0,0.88,0.001
1237,0.31383875012397766,0.43072184920310974,1.0,0.88,0.001
1238,0.3138376474380493,0.43145760893821716,1.0,0.88,0.001
1239,0.3138369023799896,0.4307738244533539,1.0,0.88,0.001
1240,0.31383565068244934,0.4303801357746124,1.0,0.88,0.001
1241,0.31383469700813293,0.430472195148468,1.0,0.88,0.001
1242,0.313833624124527,0.4313236176967621,1.0,0.88,0.001
1243,0.31383246183395386,0.4312489628791809,1.0,0.88,0.001
1244,0.313831627368927,0.4308343231678009,1.0,0.88,0.001
1245,0.31383058428764343,0.43039214611053467,1.0,0.88,0.001
1246,0.31382954120635986,0.43124067783355713,1.0,0.88,0.001
1247,0.31382840871810913,0.4310891330242157,1.0,0.88,0.001
1248,0.3138274550437927,0.4309474527835846,1.0,0.88,0.001
1249,0.31382647156715393,0.43057727813720703,1.0,0.88,0.001
1250,0.313825398683548,0.43090760707855225,1.0,0.88,0.001
1251,0.31382426619529724,0.43113309144973755,1.0,0.88,0.001
1252,0.31382322311401367,0.4306204617023468,1.0,0.88,0.001
1253,0.31382206082344055,0.4311748147010803,1.0,0.88,0.001
1254,0.3138209581375122,0.4309200942516327,1.0,0.88,0.001
1255,0.3138200342655182,0.431224524974823,1.0,0.88,0.001
1256,0.313819020986557,0.4306555986404419,1.0,0.88,0.001
1257,0.31381818652153015,0.4307500123977661,1.0,0.88,0.001
1258,0.31381756067276,0.43150031566619873,1.0,0.88,0.001
1259,0.3138161599636078,0.43103793263435364,1.0,0.88,0.001
1260,0.3138152062892914,0.430530309677124,1.0,0.88,0.001
1261,0.3138141334056854,0.4307854473590851,1.0,0.88,0.001
1262,0.3138132095336914,0.4310913383960724,1.0,0.88,0.001
1263,0.3138119578361511,0.4312797486782074,1.0,0.88,0.001
1264,0.313810795545578,0.43075135350227356,1.0,0.88,0.001
1265,0.313809871673584,0.4308241307735443,1.0,0.88,0.001
1266,0.31380897760391235,0.4306615889072418,1.0,0.88,0.001
1267,0.31380805373191833,0.4309563934803009,1.0,0.88,0.001
1268,0.3138071298599243,0.43138188123703003,1.0,0.88,0.001
1269,0.3138061761856079,0.43070298433303833,1.0,0.88,0.001
1270,0.3138054609298706,0.43090271949768066,1.0,0.88,0.001
1271,0.31380411982536316,0.43120449781417847,1.0,0.88,0.001
1272,0.3138032853603363,0.4308246672153473,1.0,0.88,0.001
1273,0.31380242109298706,0.43063434958457947,1.0,0.88,0.001
1274,0.31380125880241394,0.43137139081954956,1.0,0.88,0.001
1275,0.3138004541397095,0.43130752444267273,1.0,0.88,0.001
1276,0.3137993812561035,0.4309692680835724,1.0,0.88,0.001
1277,0.3137984573841095,0.4303111135959625,1.0,0.88,0.001
1278,0.31379759311676025,0.4308009445667267,1.0,0.88,0.001
1279,0.31379690766334534,0.43170398473739624,1.0,0.88,0.001
1280,0.31379586458206177,0.43157586455345154,1.0,0.88,0.001
1281,0.31379464268684387,0.4301653206348419,1.0,0.88,0.001
1282,0.31379377841949463,0.4304894506931305,1.0,0.88,0.001
1283,0.31379276514053345,0.4316332936286926,1.0,0.88,0.001
1284,0.3137916624546051,0.4318033456802368,1.0,0.88,0.001
1285,0.31379106640815735,0.4308926463127136,1.0,0.88,0.001
1286,0.3137902617454529,0.43010711669921875,1.0,0.88,0.001
1287,0.3137890696525574,0.43094661831855774,1.0,0.88,0.001
1288,0.31378814578056335,0.4320533275604248,1.0,0.88,0.001
1289,0.3137872517108917,0.4311489760875702,1.0,0.88,0.001
1290,0.31378626823425293,0.4302397072315216,1.0,0.88,0.001
1291,0.313785195350647,0.4309995174407959,1.0,0.88,0.001
1292,0.31378430128097534,0.43185943365097046,1.0,0.88,0.001
1293,0.313783198595047,0.43162888288497925,1.0,0.88,0.001
1294,0.31378230452537537,0.430538535118103,1.0,0.88,0.001
1295,0.3137814998626709,0.43070685863494873,1.0,0.88,0.001
1296,0.31378069519996643,0.4317319095134735,1.0,0.88,0.001
1297,0.31377992033958435,0.4312115013599396,1.0,0.88,0.001
1298,0.31377890706062317,0.43098294734954834,1.0,0.88,0.001
1299,0.3137781620025635,0.43103381991386414,1.0,0.88,0.001
1300,0.31377744674682617,0.4310101270675659,1.0,0.88,0.001
1301,0.31377631425857544,0.43118563294410706,1.0,0.88,0.001
1302,0.31377553939819336,0.43070143461227417,1.0,0.88,0.001
1303,0.31377461552619934,0.4308050870895386,1.0,0.88,0.001
1304,0.31377360224723816,0.4315297603607178,1.0,0.88,0.001
1305,0.31377261877059937,0.4311187267303467,1.0,0.88,0.001
1306,0.31377169489860535,0.43095695972442627,1.0,0.88,0.001
1307,0.31377074122428894,0.43130654096603394,1.0,0.88,0.001
1308,0.3137699365615845,0.4312029182910919,1.0,0.88,0.001
1309,0.3137691020965576,0.4314288794994354,1.0,0.88,0.001
1310,0.31376808881759644,0.43063536286354065,1.0,0.88,0.001
1311,0.3137671947479248,0.43103039264678955,1.0,0.88,0.001
1312,0.3137659728527069,0.431209534406662,1.0,0.88,0.001
1313,0.31376537680625916,0.4316999018192291,1.0,0.88,0.001
1314,0.3137645423412323,0.4309418201446533,1.0,0.88,0.001
1315,0.31376364827156067,0.43035751581192017,1.0,0.88,0.001
1316,0.3137627840042114,0.43122825026512146,1.0,0.88,0.001
1317,0.3137618899345398,0.4315110743045807,1.0,0.88,0.001
1318,0.3137611150741577,0.4315658211708069,1.0,0.88,0.001
1319,0.31376025080680847,0.4306652545928955,1.0,0.88,0.001
1320,0.31375908851623535,0.43082016706466675,1.0,0.88,0.001
1321,0.31375834345817566,0.43158870935440063,1.0,0.88,0.001
1322,0.3137577772140503,0.43149635195732117,1.0,0.88,0.001
1323,0.31375691294670105,0.4312589168548584,1.0,0.88,0.001
1324,0.31375616788864136,0.4304256737232208,1.0,0.88,0.001
1325,0.3137553930282593,0.43133118748664856,1.0,0.88,0.001
1326,0.31375449895858765,0.43163740634918213,1.0,0.88,0.001
1327,0.31375378370285034,0.4314326047897339,1.0,0.88,0.001
1328,0.3137528598308563,0.43136340379714966,1.0,0.88,0.001
1329,0.31375226378440857,0.43120071291923523,1.0,0.88,0.001
1330,0.31375131011009216,0.43097102642059326,1.0,0.88,0.001
1331,0.3137507438659668,0.43144622445106506,1.0,0.88,0.001
1332,0.31375014781951904,0.431153804063797,1.0,0.88,0.001
1333,0.3137488067150116,0.4310327172279358,1.0,0.88,0.001
1334,0.3137480914592743,0.4312950074672699,1.0,0.88,0.001
1335,0.3137475550174713,0.4314018487930298,1.0,0.88,0.001
1336,0.3137465715408325,0.43167799711227417,1.0,0.88,0.001
1337,0.31374579668045044,0.43133872747421265,1.0,0.88,0.001
1338,0.3137449324131012,0.4307474195957184,1.0,0.88,0.001
1339,0.3137444853782654,0.43134739995002747,1.0,0.88,0.001
1340,0.31374311447143555,0.4311738908290863,1.0,0.88,0.001
1341,0.3137420415878296,0.43131116032600403,1.0,0.88,0.001
1342,0.31374141573905945,0.43149322271347046,1.0,0.88,0.001
1343,0.3137408494949341,0.4311806559562683,1.0,0.88,0.001
1344,0.3137398660182953,0.4309874475002289,1.0,0.88,0.001
1345,0.31373900175094604,0.43083199858665466,1.0,0.88,0.001
1346,0.3137383759021759,0.4315052926540375,1.0,0.88,0.001
1347,0.31373733282089233,0.43152472376823425,1.0,0.88,0.001
1348,0.3137363791465759,0.4310993552207947,1.0,0.88,0.001
1349,0.3137357831001282,0.4311763048171997,1.0,0.88,0.001
1350,0.3137350380420685,0.43133679032325745,1.0,0.88,0.001
1351,0.3137340843677521,0.4316898286342621,1.0,0.88,0.001
1352,0.3137334883213043,0.4309205114841461,1.0,0.88,0.001
1353,0.313732385635376,0.43130454421043396,1.0,0.88,0.001
1354,0.3137316405773163,0.4307766854763031,1.0,0.88,0.001
1355,0.31373074650764465,0.43157848715782166,1.0,0.88,0.001
1356,0.3137300908565521,0.4319223463535309,1.0,0.88,0.001
1357,0.31372931599617004,0.43121325969696045,1.0,0.88,0.001
1358,0.3137286603450775,0.4313981533050537,1.0,0.88,0.001
1359,0.3137279748916626,0.4305255115032196,1.0,0.88,0.001
1360,0.3137274980545044,0.43116894364356995,1.0,0.88,0.001
1361,0.31372639536857605,0.43171951174736023,1.0,0.88,0.001
1362,0.3137255907058716,0.4313963055610657,1.0,0.88,0.001
1363,0.31372493505477905,0.4309842586517334,1.0,0.88,0.001
1364,0.31372418999671936,0.43087124824523926,1.0,0.88,0.001
1365,0.3137233257293701,0.4317781925201416,1.0,0.88,0.001
1366,0.3137226104736328,0.4320518374443054,1.0,0.88,0.001
1367,0.3137218952178955,0.43120265007019043,1.0,0.88,0.001
1368,0.3137211799621582,0.4308159351348877,1.0,0.88,0.001
1369,0.31372034549713135,0.4312954843044281,1.0,0.88,0.001
1370,0.31371986865997314,0.43227314949035645,1.0,0.88,0.001
1371,0.3137190341949463,0.4313473105430603,1.0,0.88,0.001
1372,0.31371814012527466,0.430999755859375,1.0,0.88,0.001
1373,0.31371748447418213,0.43076151609420776,1.0,0.88,0.001
1374,0.3137168288230896,0.4316161274909973,1.0,0.88,0.001
1375,0.31371569633483887,0.431711345911026,1.0,0.88,0.001
1376,0.3137151300907135,0.4312414824962616,1.0,0.88,0.001
1377,0.3137143850326538,0.43117713928222656,1.0,0.88,0.001
1378,0.3137134611606598,0.4311847686767578,1.0,0.88,0.001
1379,0.31371280550956726,0.4316140413284302,1.0,0.88,0.001
1380,0.31371209025382996,0.43198975920677185,1.0,0.88,0.001
1381,0.3137112557888031,0.4309404492378235,1.0,0.88,0.001
1382,0.3137103021144867,0.4307836592197418,1.0,0.88,0.001
1383,0.31370967626571655,0.4317433834075928,1.0,0.88,0.001
1384,0.3137088119983673,0.43195149302482605,1.0,0.88,0.001
1385,0.3137080669403076,0.431816965341568,1.0,0.88,0.001
1386,0.3137074410915375,0.43083834648132324,1.0,0.88,0.001
1387,0.31370672583580017,0.4310685694217682,1.0,0.88,0.001
1388,0.3137061297893524,0.43184036016464233,1.0,0.88,0.001
1389,0.3137052059173584,0.4317185580730438,1.0,0.88,0.001
1390,0.3137044906616211,0.4313351809978485,1.0,0.88,0.001
1391,0.31370389461517334,0.430848628282547,1.0,0.88,0.001
1392,0.3137030303478241,0.4316190481185913,1.0,0.88,0.001
1393,0.3137023448944092,0.4318349063396454,1.0,0.88,0.001
1394,0.3137017786502838,0.431636244058609,1.0,0.88,0.001
1395,0.31370118260383606,0.43059784173965454,1.0,0.88,0.001
1396,0.313700407743454,0.43094947934150696,1.0,0.88,0.001
1397,0.31369996070861816,0.4320959448814392,1.0,0.88,0.001
1398,0.31369897723197937,0.43200820684432983,1.0,0.88,0.001
1399,0.3136983811855316,0.431218683719635,1.0,0.88,0.001
1400,0.31369778513908386,0.43161541223526,1.0,0.88,0.001
1401,0.31369689106941223,0.4316352903842926,1.0,0.88,0.001
1402,0.3136962950229645,0.4309316873550415,1.0,0.88,0.001
1403,0.3136955499649048,0.43154704570770264,1.0,0.88,0.001
1404,0.31369468569755554,0.43152084946632385,1.0,0.88,0.001
1405,0.313694030046463,0.4318596124649048,1.0,0.88,0.001
1406,0.3136933445930481,0.431784987449646,1.0,0.88,0.001
1407,0.3136926293373108,0.43107226490974426,1.0,0.88,0.001
1408,0.3136918842792511,0.43124228715896606,1.0,0.88,0.001
1409,0.31369125843048096,0.43191176652908325,1.0,0.88,0.001
1410,0.31369054317474365,0.4316699504852295,1.0,0.88,0.001
1411,0.31368979811668396,0.43119633197784424,1.0,0.88,0.001
1412,0.3136891722679138,0.43136993050575256,1.0,0.88,0.001
1413,0.3136885464191437,0.431862473487854,1.0,0.88,0.001
1414,0.31368809938430786,0.4316507577896118,1.0,0.88,0.001
1415,0.31368711590766907,0.4314815104007721,1.0,0.88,0.001
1416,0.3136866092681885,0.431309312582016,1.0,0.88,0.001
1417,0.3136861026287079,0.43129026889801025,1.0,0.88,0.001
1418,0.3136853575706482,0.43187862634658813,1.0,0.88,0.001
1419,0.3136845827102661,0.4316590130329132,1.0,0.88,0.001
1420,0.31368404626846313,0.4313964545726776,1.0,0.88,0.001
1421,0.3136832118034363,0.43118351697921753,1.0,0.88,0.001
1422,0.31368255615234375,0.4318722188472748,1.0,0.88,0.001
1423,0.31368154287338257,0.4315382242202759,1.0,0.88,0.001
1424,0.3136809170246124,0.43168267607688904,1.0,0.88,0.001
1425,0.31368058919906616,0.4313861131668091,1.0,0.88,0.001
1426,0.3136797547340393,0.43149957060813904,1.0,0.88,0.001
1427,0.31367892026901245,0.43135571479797363,1.0,0.88,0.001
1428,0.3136783540248871,0.4315192401409149,1.0,0.88,0.001
1429,0.31367772817611694,0.4321078062057495,1.0,0.88,0.001
1430,0.3136768639087677,0.43136879801750183,1.0,0.88,0.001
1431,0.31367620825767517,0.4312784969806671,1.0,0.88,0.001
1432,0.31367576122283936,0.4318345785140991,1.0,0.88,0.001
1433,0.31367504596710205,0.4319717288017273,1.0,0.88,0.001
1434,0.3136746287345886,0.4313000440597534,1.0,0.88,0.001
1435,0.31367388367652893,0.43144795298576355,1.0,0.88,0.001
1436,0.3136732280254364,0.43136873841285706,1.0,0.88,0.001
1437,0.3136727213859558,0.4320489168167114,1.0,0.88,0.001
1438,0.31367185711860657,0.431776225566864,1.0,0.88,0.001
1439,0.3136712908744812,0.43146035075187683,1.0,0.88,0.001
1440,0.31367096304893494,0.4314171075820923,1.0,0.88,0.001
1441,0.3136700987815857,0.4315977394580841,1.0,0.88,0.001
1442,0.3136695921421051,0.43182384967803955,1.0,0.88,0.001
1443,0.313668817281723,0.43162670731544495,1.0,0.88,0.001
1444,0.31366807222366333,0.43161365389823914,1.0,0.88,0.001
1445,0.31366753578186035,0.4317471385002136,1.0,0.88,0.001
1446,0.31366676092147827,0.4317331314086914,1.0,0.88,0.001
1447,0.3136664032936096,0.431586354970932,1.0,0.88,0.001
1448,0.31366556882858276,0.43144679069519043,1.0,0.88,0.001
1449,0.3136649429798126,0.4315980076789856,1.0,0.88,0.001
1450,0.31366434693336487,0.43199047446250916,1.0,0.88,0.001
1451,0.31366387009620667,0.43179255723953247,1.0,0.88,0.001
1452,0.3136628270149231,0.4314061105251312,1.0,0.88,0.001
1453,0.31366223096847534,0.43177250027656555,1.0,0.88,0.001
1454,0.3136619031429291,0.43183082342147827,1.0,0.88,0.001
1455,0.31366100907325745,0.43166065216064453,1.0,0.88,0.001
1456,0.3136606216430664,0.43143653869628906,1.0,0.88,0.001
1457,0.3136599063873291,0.43156906962394714,1.0,0.88,0.001
1458,0.3136592209339142,0.43191444873809814,1.0,0.88,0.001
1459,0.31365883350372314,0.43186041712760925,1.0,0.88,0.001
1460,0.3136579692363739,0.43175366520881653,1.0,0.88,0.001
1461,0.3136572539806366,0.4314210116863251,1.0,0.88,0.001
1462,0.3136567175388336,0.4317859411239624,1.0,0.88,0.001
1463,0.3136560320854187,0.4320298731327057,1.0,0.88,0.001
1464,0.31365540623664856,0.43170279264450073,1.0,0.88,0.001
1465,0.3136550188064575,0.4313373565673828,1.0,0.88,0.001
1466,0.31365451216697693,0.43168023228645325,1.0,0.88,0.001
1467,0.3136535584926605,0.4318477511405945,1.0,0.88,0.001
1468,0.31365296244621277,0.43179428577423096,1.0,0.88,0.001
1469,0.31365248560905457,0.43164485692977905,1.0,0.88,0.001
1470,0.3136517405509949,0.4315602779388428,1.0,0.88,0.001
1471,0.3136512339115143,0.4317440688610077,1.0,0.88,0.001
1472,0.313650518655777,0.43185508251190186,1.0,0.88,0.001
1473,0.313649982213974,0.43142327666282654,1.0,0.88,0.001
1474,0.31364962458610535,0.4317309558391571,1.0,0.88,0.001
1475,0.31364893913269043,0.4317459464073181,1.0,0.88,0.001
1476,0.3136482238769531,0.4321763515472412,1.0,0.88,0.001
1477,0.31364771723747253,0.431588739156723,1.0,0.88,0.001
1478,0.31364694237709045,0.4313458502292633,1.0,0.88,0.001
1479,0.31364643573760986,0.43159908056259155,1.0,0.88,0.001
1480,0.3136458396911621,0.43208739161491394,1.0,0.88,0.001
1481,0.31364524364471436,0.4320748448371887,1.0,0.88,0.001
1482,0.3136446475982666,0.43129998445510864,1.0,0.88,0.001
1483,0.3136441111564636,0.4317130148410797,1.0,0.88,0.001
1484,0.3136433959007263,0.4321008026599884,1.0,0.88,0.001
1485,0.3136429190635681,0.43172675371170044,1.0,0.88,0.001
1486,0.31364232301712036,0.43156498670578003,1.0,0.88,0.001
1487,0.313641756772995,0.431745707988739,1.0,0.88,0.001
1488,0.313641220331192,0.4316815137863159,1.0,0.88,0.001
1489,0.3136405646800995,0.4314700663089752,1.0,0.88,0.001
1490,0.3136399984359741,0.43196597695350647,1.0,0.88,0.001
1491,0.3136393427848816,0.43193721771240234,1.0,0.88,0.001
1492,0.31363874673843384,0.4318689703941345,1.0,0.88,0.001
1493,0.3136381208896637,0.43129420280456543,1.0,0.88,0.001
1494,0.31363755464553833,0.4314265847206116,1.0,0.88,0.001
1495,0.3136370778083801,0.4318029284477234,1.0,0.88,0.001
1496,0.3136364817619324,0.43233540654182434,1.0,0.88,0.001
1497,0.31363606452941895,0.4316848814487457,1.0,0.88,0.001
1498,0.3136351704597473,0.431133508682251,1.0,0.88,0.001
1499,0.3136347234249115,0.43211662769317627,1.0,0.88,0.001
1500,0.31363409757614136,0.432229608297348,1.0,0.88,0.001
1501,0.31363341212272644,0.43176504969596863,1.0,0.88,0.001
1502,0.3136327862739563,0.43144986033439636,1.0,0.88,0.001
1503,0.31363242864608765,0.43156132102012634,1.0,0.88,0.001
1504,0.31363174319267273,0.431939959526062,1.0,0.88,0.001
1505,0.31363120675086975,0.43234291672706604,1.0,0.88,0.001
1506,0.31363052129745483,0.4316769540309906,1.0,0.88,0.001
1507,0.31362998485565186,0.4316001236438751,1.0,0.88,0.001
1508,0.3136294186115265,0.43178653717041016,1.0,0.88,0.001
1509,0.31362900137901306,0.43189871311187744,1.0,0.88,0.001
1510,0.31362828612327576,0.43195271492004395,1.0,0.88,0.001
1511,0.31362777948379517,0.43123090267181396,1.0,0.88,0.001
1512,0.31362730264663696,0.4312635660171509,1.0,0.88,0.001
1513,0.31362664699554443,0.43218162655830383,1.0,0.88,0.001
1514,0.3136262595653534,0.4322642982006073,1.0,0.88,0.001
1515,0.313625693321228,0.43149420619010925,1.0,0.88,0.001
1516,0.3136249780654907,0.4313139021396637,1.0,0.88,0.001
1517,0.31362468004226685,0.4324117600917816,1.0,0.88,0.001
1518,0.3136240243911743,0.4316612184047699,1.0,0.88,0.001
1519,0.3136236071586609,0.431339293718338,1.0,0.88,0.001
1520,0.31362295150756836,0.4321202337741852,1.0,0.88,0.001
1521,0.31362253427505493,0.4322100877761841,1.0,0.88,0.001
1522,0.3136218786239624,0.4318573474884033,1.0,0.88,0.001
1523,0.3136214017868042,0.43147003650665283,1.0,0.88,0.001
1524,0.313620924949646,0.4315580129623413,1.0,0.88,0.001
1525,0.3136202096939087,0.4317719638347626,1.0,0.88,0.001
1526,0.3136198818683624,0.43212565779685974,1.0,0.88,0.001
1527,0.3136194050312042,0.43169674277305603,1.0,0.88,0.001
1528,0.31361883878707886,0.43201011419296265,1.0,0.88,0.001
1529,0.3136182129383087,0.43180450797080994,1.0,0.88,0.001
1530,0.3136177659034729,0.43165484070777893,1.0,0.88,0.001
1531,0.3136170506477356,0.4314831793308258,1.0,0.88,0.001
1532,0.3136165142059326,0.4318503141403198,1.0,0.88,0.001
1533,0.31361594796180725,0.43229058384895325,1.0,0.88,0.001
1534,0.3136153221130371,0.4316446781158447,1.0,0.88,0.001
1535,0.31361496448516846,0.43168699741363525,1.0,0.88,0.001
1536,0.31361421942710876,0.4317549765110016,1.0,0.88,0.001
1537,0.3136137127876282,0.4320569634437561,1.0,0.88,0.001
1538,0.3136131465435028,0.4321766197681427,1.0,0.88,0.001
1539,0.31361261010169983,0.4315527379512787,1.0,0.88,0.001
1540,0.313612163066864,0.43109965324401855,1.0,0.88,0.001
1541,0.3136116564273834,0.4321891665458679,1.0,0.88,0.001
1542,0.3136109709739685,0.4323694109916687,1.0,0.88,0.001
1543,0.3136104345321655,0.43202152848243713,1.0,0.88,0.001
1544,0.31361016631126404,0.43157246708869934,1.0,0.88,0.001
1545,0.31360968947410583,0.431510329246521,1.0,0.88,0.001
1546,0.3136090338230133,0.4320180118083954,1.0,0.88,0.001
1547,0.31360846757888794,0.43211567401885986,1.0,0.88,0.001
1548,0.3136081397533417,0.4318496286869049,1.0,0.88,0.001
1549,0.31360742449760437,0.4318656623363495,1.0,0.88,0.001
1550,0.31360697746276855,0.4320511221885681,1.0,0.88,0.001
1551,0.31360650062561035,0.43190792202949524,1.0,0.88,0.001
1552,0.3136061429977417,0.4315914511680603,1.0,0.88,0.001
1553,0.31360557675361633,0.4316039979457855,1.0,0.88,0.001
1554,0.31360507011413574,0.43226414918899536,1.0,0.88,0.001
1555,0.3136047124862671,0.431564062833786,1.0,0.88,0.001
1556,0.31360411643981934,0.4316519796848297,1.0,0.88,0.001
1557,0.31360363960266113,0.43194112181663513,1.0,0.88,0.001
1558,0.3136032819747925,0.43208077549934387,1.0,0.88,0.001
1559,0.31360262632369995,0.4320644736289978,1.0,0.88,0.001
1560,0.313602089881897,0.43155157566070557,1.0,0.88,0.001
1561,0.31360143423080444,0.43175235390663147,1.0,0.88,0.001
1562,0.3136010468006134,0.4320824444293976,1.0,0.88,0.001
1563,0.3136005401611328,0.4320243000984192,1.0,0.88,0.001
1564,0.31359997391700745,0.43179580569267273,1.0,0.88,0.001
1565,0.31359925866127014,0.43184739351272583,1.0,0.88,0.001
1566,0.3135989010334015,0.4321715533733368,1.0,0.88,0.001
1567,0.3135984539985657,0.4317801296710968,1.0,0.88,0.001
1568,0.3135978579521179,0.4318508505821228,1.0,0.88,0.001
1569,0.3135973811149597,0.4319160580635071,1.0,0.88,0.001
1570,0.3135969042778015,0.4321049451828003,1.0,0.88,0.001
1571,0.3135964870452881,0.43198737502098083,1.0,0.88,0.001
1572,0.31359583139419556,0.4315027594566345,1.0,0.88,0.001
1573,0.3135952651500702,0.43186959624290466,1.0,0.88,0.001
1574,0.31359463930130005,0.43188971281051636,1.0,0.88,0.001
1575,0.3135943114757538,0.43191394209861755,1.0,0.88,0.001
1576,0.3135937750339508,0.4313998520374298,1.0,0.88,0.001
1577,0.3135932683944702,0.43163689970970154,1.0,0.88,0.001
1578,0.3135928511619568,0.43253350257873535,1.0,0.88,0.001
1579,0.31359240412712097,0.432061105966568,1.0,0.88,0.001
1580,0.3135918378829956,0.43163710832595825,1.0,0.88,0.001
1581,0.313591331243515,0.4316543936729431,1.0,0.88,0.001
1582,0.3135909140110016,0.43242084980010986,1.0,0.88,0.001
1583,0.3135903477668762,0.4322371184825897,1.0,0.88,0.001
1584,0.3135899603366852,0.43171122670173645,1.0,0.88,0.001
1585,0.313589483499527,0.4315603971481323,1.0,0.88,0.001
1586,0.3135890066623688,0.43238526582717896,1.0,0.88,0.001
1587,0.31358852982521057,0.4320752024650574,1.0,0.88,0.001
1588,0.31358811259269714,0.4317644238471985,1.0,0.88,0.001
1589,0.3135877549648285,0.43168121576309204,1.0,0.88,0.001
1590,0.3135872781276703,0.431838721036911,1.0,0.88,0.001
1591,0.3135868012905121,0.43216565251350403,1.0,0.88,0.001
1592,0.31358635425567627,0.43227073550224304,1.0,0.88,0.001
1593,0.31358593702316284,0.431484192609787,1.0,0.88,0.001
1594,0.3135852515697479,0.4316335618495941,1.0,0.88,0.001
1595,0.3135848641395569,0.43242186307907104,1.0,0.88,0.001
1596,0.31358450651168823,0.4323500692844391,1.0,0.88,0.001
1597,0.31358402967453003,0.43163299560546875,1.0,0.88,0.001
1598,0.31358346343040466,0.4315788149833679,1.0,0.88,0.001
1599,0.3135831952095032,0.4319499731063843,1.0,0.88,0.001
1600,0.31358280777931213,0.43204811215400696,1.0,0.88,0.001
1601,0.31358230113983154,0.43177109956741333,1.0,0.88,0.001
1602,0.313581645488739,0.43211162090301514,1.0,0.88,0.001
1603,0.31358134746551514,0.43221184611320496,1.0,0.88,0.001
1604,0.31358081102371216,0.43161845207214355,1.0,0.88,0.001
1605,0.3135804235935211,0.43177396059036255,1.0,0.88,0.001
1606,0.31358009576797485,0.43202418088912964,1.0,0.88,0.001
1607,0.31357964873313904,0.43276745080947876,1.0,0.88,0.001
1608,0.31357908248901367,0.43197768926620483,1.0,0.88,0.001
1609,0.31357860565185547,0.4312484860420227,1.0,0.88,0.001
1610,0.31357821822166443,0.43137064576148987,1.0,0.88,0.001
1611,0.3135780096054077,0.43240517377853394,1.0,0.88,0.001
1612,0.3135772943496704,0.4327158033847809,1.0,0.88,0.001
1613,0.3135768473148346,0.43239253759384155,1.0,0.88,0.001
1614,0.3135764002799988,0.4312531352043152,1.0,0.88,0.001
1615,0.3135758638381958,0.4312695562839508,1.0,0.88,0.001
1616,0.3135754466056824,0.43228384852409363,1.0,0.88,0.001
1617,0.3135749399662018,0.4327225983142853,1.0,0.88,0.001
1618,0.3135744333267212,0.4317864179611206,1.0,0.88,0.001
1619,0.3135739266872406,0.4315018057823181,1.0,0.88,0.001
1620,0.31357356905937195,0.4317542612552643,1.0,0.88,0.001
1621,0.3135732114315033,0.43225914239883423,1.0,0.88,0.001
1622,0.3135727047920227,0.43205147981643677,1.0,0.88,0.001
1623,0.31357213854789734,0.43182018399238586,1.0,0.88,0.001
1624,0.3135716915130615,0.43191543221473694,1.0,0.88,0.001
1625,0.3135712742805481,0.4321480095386505,1.0,0.88,0.001
1626,0.3135708272457123,0.4322836399078369,1.0,0.88,0.001
1627,0.31357038021087646,0.4318966567516327,1.0,0.88,0.001
1628,0.3135700523853302,0.4321516454219818,1.0,0.88,0.001
1629,0.313569575548172,0.43197113275527954,1.0,0.88,0.001
1630,0.31356918811798096,0.43176764249801636,1.0,0.88,0.001
1631,0.31356868147850037,0.4324290454387665,1.0,0.88,0.001
1632,0.3135681748390198,0.43223828077316284,1.0,0.88,0.001
1633,0.31356778740882874,0.4320117235183716,1.0,0.88,0.001
1634,0.3135673403739929,0.43131011724472046,1.0,0.88,0.001
1635,0.31356704235076904,0.43205955624580383,1.0,0.88,0.001
1636,0.3135664463043213,0.43306273221969604,1.0,0.88,0.001
1637,0.3135658800601959,0.43178504705429077,1.0,0.88,0.001
1638,0.3135656416416168,0.4318399727344513,1.0,0.88,0.001
1639,0.31356507539749146,0.4316641688346863,1.0,0.88,0.001
1640,0.3135646879673004,0.4325869381427765,1.0,0.88,0.001
1641,0.313564270734787,0.43236953020095825,1.0,0.88,0.001
1642,0.3135637938976288,0.4317948520183563,1.0,0.88,0.001
1643,0.31356337666511536,0.4317430555820465,1.0,0.88,0.001
1644,0.31356292963027954,0.4321664571762085,1.0,0.88,0.001
1645,0.3135624825954437,0.43229854106903076,1.0,0.88,0.001
1646,0.3135620057582855,0.43188828229904175,1.0,0.88,0.001
1647,0.3135616183280945,0.4319641888141632,1.0,0.88,0.001
1648,0.31356123089790344,0.4321828782558441,1.0,0.88,0.001
1649,0.3135607838630676,0.43193039298057556,1.0,0.88,0.001
1650,0.31356021761894226,0.43227317929267883,1.0,0.88,0.001
1651,0.31355980038642883,0.4325258731842041,1.0,0.88,0.001
1652,0.31355953216552734,0.43224555253982544,1.0,0.88,0.001
1653,0.313558965921402,0.43200379610061646,1.0,0.88,0.001
1654,0.3135584592819214,0.43194907903671265,1.0,0.88,0.001
1655,0.3135581314563751,0.4322777986526489,1.0,0.88,0.001
1656,0.31355756521224976,0.432439923286438,1.0,0.88,0.001
1657,0.31355714797973633,0.431758850812912,1.0,0.88,0.001
1658,0.3135567903518677,0.4323018789291382,1.0,0.88,0.001
1659,0.31355637311935425,0.43212464451789856,1.0,0.88,0.001
1660,0.3135559558868408,0.43224281072616577,1.0,0.88,0.001
1661,0.31355562806129456,0.43242812156677246,1.0,0.88,0.001
1662,0.3135552704334259,0.43196216225624084,1.0,0.88,0.001
1663,0.31355488300323486,0.4318423867225647,1.0,0.88,0.001
1664,0.3135544955730438,0.43223124742507935,1.0,0.88,0.001
1665,0.31355398893356323,0.43236348032951355,1.0,0.88,0.001
1666,0.3135535418987274,0.43226420879364014,1.0,0.88,0.001
1667,0.31355318427085876,0.43203049898147583,1.0,0.88,0.001
1668,0.31355273723602295,0.4319846034049988,1.0,0.88,0.001
1669,0.31355246901512146,0.43203821778297424,1.0,0.88,0.001
1670,0.3135519027709961,0.43243148922920227,1.0,0.88,0.001
1671,0.3135516047477722,0.4322088360786438,1.0,0.88,0.001
1672,0.313551127910614,0.43191951513290405,1.0,0.88,0.001
1673,0.3135506808757782,0.43183329701423645,1.0,0.88,0.001
1674,0.3135502338409424,0.4322204291820526,1.0,0.88,0.001
1675,0.3135499954223633,0.43268993496894836,1.0,0.88,0.001
1676,0.31354957818984985,0.4322013854980469,1.0,0.88,0.001
1677,0.31354907155036926,0.4319819509983063,1.0,0.88,0.001
1678,0.313548743724823,0.4318704605102539,1.0,0.88,0.001
1679,0.3135484755039215,0.43203669786453247,1.0,0.88,0.001
1680,0.3135479688644409,0.4321925640106201,1.0,0.88,0.001
1681,0.3135475516319275,0.4324953556060791,1.0,0.88,0.001
1682,0.313547283411026,0.4318804144859314,1.0,0.88,0.001
1683,0.3135468065738678,0.43182891607284546,1.0,0.88,0.001
1684,0.3135465085506439,0.43224644660949707,1.0,0.88,0.001
1685,0.3135460615158081,0.4328193962574005,1.0,0.88,0.001
1686,0.31354570388793945,0.4320586323738098,1.0,0.88,0.001
1687,0.3135453462600708,0.4316786825656891,1.0,0.88,0.001
1688,0.3135448396205902,0.43213868141174316,1.0,0.88,0.001
1689,0.31354445219039917,0.4327574670314789,1.0,0.88,0.001
1690,0.31354424357414246,0.43193697929382324,1.0,0.88,0.001
1691,0.3135437071323395,0.4316624402999878,1.0,0.88,0.001
1692,0.31354328989982605,0.4319826364517212,1.0,0.88,0.001
1693,0.3135429620742798,0.43252629041671753,1.0,0.88,0.001
1694,0.31354236602783203,0.43232232332229614,1.0,0.88,0.001
1695,0.31354206800460815,0.4322745203971863,1.0,0.88,0.001
1696,0.31354185938835144,0.4318449795246124,1.0,0.88,0.001
1697,0.3135412335395813,0.43205928802490234,1.0,0.88,0.001
1698,0.313541054725647,0.4328209161758423,1.0,0.88,0.001
1699,0.31354063749313354,0.43269261717796326,1.0,0.88,0.001
1700,0.31354033946990967,0.4316908121109009,1.0,0.88,0.001
1701,0.3135397434234619,0.4317542314529419,1.0,0.88,0.001
1702,0.3135394752025604,0.43204617500305176,1.0,0.88,0.001
1703,0.3135389983654022,0.43269822001457214,1.0,0.88,0.001
1704,0.31353864073753357,0.4322890043258667,1.0,0.88,0.001
1705,0.3135383427143097,0.4320128560066223,1.0,0.88,0.001
1706,0.3135378956794739,0.43225347995758057,1.0,0.88,0.001
1707,0.31353747844696045,0.43228423595428467,1.0,0.88,0.001
1708,0.3135371506214142,0.43212759494781494,1.0,0.88,0.001
1709,0.3135368227958679,0.4320710003376007,1.0,0.88,0.001
1710,0.3135363459587097,0.43172454833984375,1.0,0.88,0.001
1711,0.3135360777378082,0.4325895607471466,1.0,0.88,0.001
1712,0.3135356605052948,0.4323659837245941,1.0,0.88,0.001
1713,0.31353527307510376,0.4319978356361389,1.0,0.88,0.001
1714,0.3135349750518799,0.43197545409202576,1.0,0.88,0.001
1715,0.3135344386100769,0.4324004650115967,1.0,0.88,0.001
1716,0.3135341703891754,0.43282783031463623,1.0,0.88,0.001
1717,0.3135340213775635,0.4320230185985565,1.0,0.88,0.001
1718,0.31353330612182617,0.43167710304260254,1.0,0.88,0.001
1719,0.3135332763195038,0.4321748614311218,1.0,0.88,0.001
1720,0.31353262066841125,0.4329061806201935,1.0,0.88,0.001
1721,0.3135322332382202,0.4323067367076874,1.0,0.88,0.001
1722,0.31353217363357544,0.4318367838859558,1.0,0.88,0.001
1723,0.31353142857551575,0.43251824378967285,1.0,0.88,0.001
1724,0.3135313391685486,0.43226635456085205,1.0,0.88,0.001
1725,0.3135305643081665,0.43188369274139404,1.0,0.88,0.001
1726,0.31353041529655457,0.4324054718017578,1.0,0.88,0.001
1727,0.3135300576686859,0.43202608823776245,1.0,0.88,0.001
1728,0.3135295808315277,0.432200163602829,1.0,0.88,0.001
1729,0.3135294020175934,0.4324880540370941,1.0,0.88,0.001
1730,0.313528835773468,0.4328109622001648,1.0,0.88,0.001
1731,0.31352871656417847,0.43215832114219666,1.0,0.88,0.001
1732,0.31352803111076355,0.43196991086006165,1.0,0.88,0.001
1733,0.3135276436805725,0.43203985691070557,1.0,0.88,0.001
1734,0.3135274052619934,0.4324910342693329,1.0,0.88,0.001
1735,0.3135269284248352,0.43268704414367676,1.0,0.88,0.001
1736,0.31352660059928894,0.4321892559528351,1.0,0.88,0.001
1737,0.3135262429714203,0.43187645077705383,1.0,0.88,0.001
1738,0.31352606415748596,0.4318773150444031,1.0,0.88,0.001
1739,0.3135257065296173,0.4325940012931824,1.0,0.88,0.001
1740,0.31352531909942627,0.43256551027297974,1.0,0.88,0.001
1741,0.3135250210762024,0.4320700764656067,1.0,0.88,0.001
1742,0.3135245442390442,0.4315086305141449,1.0,0.88,0.001
1743,0.31352436542510986,0.4324655532836914,1.0,0.88,0.001
1744,0.3135237991809845,0.43280842900276184,1.0,0.88,0.001
1745,0.31352365016937256,0.4322083592414856,1.0,0.88,0.001
1746,0.31352320313453674,0.43187573552131653,1.0,0.88,0.001
1747,0.31352272629737854,0.43212050199508667,1.0,0.88,0.001
1748,0.3135225474834442,0.4319373667240143,1.0,0.88,0.001
1749,0.3135221302509308,0.4328180253505707,1.0,0.88,0.001
1750,0.3135218918323517,0.4326930642127991,1.0,0.88,0.001
1751,0.31352150440216064,0.4316733181476593,1.0,0.88,0.001
1752,0.31352099776268005,0.43198901414871216,1.0,0.88,0.001
1753,0.3135208189487457,0.43250542879104614,1.0,0.88,0.001
1754,0.3135204315185547,0.43260490894317627,1.0,0.88,0.001
1755,0.31352001428604126,0.43187546730041504,1.0,0.88,0.001
1756,0.31351977586746216,0.4320978820323944,1.0,0.88,0.001
1757,0.31351932883262634,0.4324108362197876,1.0,0.88,0.001
1758,0.31351906061172485,0.4324667453765869,1.0,0.88,0.001
1759,0.3135185241699219,0.4319627285003662,1.0,0.88,0.001
1760,0.3135182559490204,0.4320414662361145,1.0,0.88,0.001
1761,0.3135179877281189,0.432193785905838,1.0,0.88,0.001
1762,0.313517689704895,0.4324833154678345,1.0,0.88,0.001
1763,0.3135172128677368,0.43203723430633545,1.0,0.88,0.001
1764,0.3135170340538025,0.4317758083343506,1.0,0.88,0.001
1765,0.3135167062282562,0.43237805366516113,1.0,0.88,0.001
1766,0.31351637840270996,0.4321020841598511,1.0,0.88,0.001
1767,0.31351611018180847,0.4322522282600403,1.0,0.88,0.001
1768,0.31351569294929504,0.4319923520088196,1.0,0.88,0.001
1769,0.3135153651237488,0.43235355615615845,1.0,0.88,0.001
1770,0.31351494789123535,0.4321707785129547,1.0,0.88,0.001
1771,0.3135145902633667,0.4317876398563385,1.0,0.88,0.001
1772,0.3135143220424652,0.43260788917541504,1.0,0.88,0.001
1773,0.3135140836238861,0.43244874477386475,1.0,0.88,0.001
1774,0.3135136365890503,0.43218138813972473,1.0,0.88,0.001
1775,0.3135133683681488,0.43160387873649597,1.0,0.88,0.001
1776,0.31351304054260254,0.432084858417511,1.0,0.88,0.001
1777,0.3135126829147339,0.43261414766311646,1.0,0.88,0.001
1778,0.3135123550891876,0.4324398338794708,1.0,0.88,0.001
1779,0.3135119676589966,0.43207889795303345,1.0,0.88,0.001
1780,0.3135116398334503,0.43185752630233765,1.0,0.88,0.001
1781,0.31351128220558167,0.4318890869617462,1.0,0.88,0.001
1782,0.3135109543800354,0.4326397180557251,1.0,0.88,0.001
1783,0.31351062655448914,0.43231910467147827,1.0,0.88,0.001
1784,0.3135102391242981,0.43221187591552734,1.0,0.88,0.001
1785,0.31350985169410706,0.4318907558917999,1.0,0.88,0.001
1786,0.3135095536708832,0.4320243000984192,1.0,0.88,0.001
1787,0.3135092258453369,0.43247222900390625,1.0,0.88,0.001
1788,0.31350889801979065,0.43213438987731934,1.0,0.88,0.001
1789,0.3135084807872772,0.43181976675987244,1.0,0.88,0.001
1790,0.31350815296173096,0.43256205320358276,1.0,0.88,0.001
1791,0.3135078549385071,0.43209755420684814,1.0,0.88,0.001
1792,0.31350764632225037,0.4319673180580139,1.0,0.88,0.001
1793,0.3135072588920593,0.43200260400772095,1.0,0.88,0.001
1794,0.3135068118572235,0.43232032656669617,1.0,0.88,0.001
1795,0.3135065734386444,0.43233901262283325,1.0,0.88,0.001
1796,0.31350627541542053,0.4320436418056488,1.0,0.88,0.001
1797,0.31350594758987427,0.43203026056289673,1.0,0.88,0.001
1798,0.31350570917129517,0.4321516752243042,1.0,0.88,0.001
1799,0.3135054409503937,0.4321686923503876,1.0,0.88,0.001
1800,0.31350505352020264,0.43223708868026733,1.0,0.88,0.001
1801,0.31350475549697876,0.43200406432151794,1.0,0.88,0.001
1802,0.3135043978691101,0.4319919943809509,1.0,0.88,0.001
1803,0.31350404024124146,0.4321996569633484,1.0,0.88,0.001
1804,0.31350383162498474,0.4319465756416321,1.0,0.88,0.001
1805,0.3135034441947937,0.4319479763507843,1.0,0.88,0.001
1806,0.31350329518318176,0.432437539100647,1.0,0.88,0.001
1807,0.31350287795066833,0.431977778673172,1.0,0.88,0.001
1808,0.3135026693344116,0.43209022283554077,1.0,0.88,0.001
1809,0.31350234150886536,0.43179598450660706,1.0,0.88,0.001
1810,0.31350207328796387,0.4324139356613159,1.0,0.88,0.001
1811,0.31350162625312805,0.43233785033226013,1.0,0.88,0.001
1812,0.3135015368461609,0.43161579966545105,1.0,0.88,0.001
1813,0.3135012090206146,0.43217483162879944,1.0,0.88,0.001
1814,0.3135007917881012,0.43224194645881653,1.0,0.88,0.001
1815,0.3135004937648773,0.4322865605354309,1.0,0.88,0.001
1816,0.3135000169277191,0.4321402311325073,1.0,0.88,0.001
1817,0.31349989771842957,0.4315945506095886,1.0,0.88,0.001
1818,0.3134995102882385,0.43208882212638855,1.0,0.88,0.001
1819,0.31349924206733704,0.4322033226490021,1.0,0.88,0.001
1820,0.3134988844394684,0.4326539933681488,1.0,0.88,0.001
1821,0.3134986162185669,0.4315018355846405,1.0,0.88,0.001
1822,0.31349825859069824,0.43158066272735596,1.0,0.88,0.001
1823,0.31349804997444153,0.43219271302223206,1.0,0.88,0.001
1824,0.3134976327419281,0.4325874447822571,1.0,0.88,0.001
1825,0.3134973645210266,0.4318956434726715,1.0,0.88,0.001
1826,0.31349703669548035,0.43162500858306885,1.0,0.88,0.001
1827,0.3134967088699341,0.4319988191127777,1.0,0.88,0.001
1828,0.3134964108467102,0.4326764643192291,1.0,0.88,0.001
1829,0.31349608302116394,0.43242180347442627,1.0,0.88,0.001
1830,0.3134958744049072,0.4314413368701935,1.0,0.88,0.001
1831,0.3134954571723938,0.431528776884079,1.0,0.88,0.001
1832,0.3134951889514923,0.4324856698513031,1.0,0.88,0.001
1833,0.31349480152130127,0.43268874287605286,1.0,0.88,0.001
1834,0.3134945333003998,0.43176981806755066,1.0,0.88,0.001
1835,0.3134942948818207,0.43177589774131775,1.0,0.88,0.001
1836,0.3134939670562744,0.4319642186164856,1.0,0.88,0.001
1837,0.31349360942840576,0.4322235584259033,1.0,0.88,0.001
1838,0.3134933412075043,0.432298481464386,1.0,0.88,0.001
1839,0.31349313259124756,0.4319057762622833,1.0,0.88,0.001
1840,0.31349265575408936,0.43197357654571533,1.0,0.88,0.001
1841,0.31349238753318787,0.43219447135925293,1.0,0.88,0.001
1842,0.313492089509964,0.43198636174201965,1.0,0.88,0.001
1843,0.3134918510913849,0.4318763315677643,1.0,0.88,0.001
1844,0.3134915828704834,0.4322618842124939,1.0,0.88,0.001
1845,0.3134913742542267,0.432411789894104,1.0,0.88,0.001
1846,0.3134910464286804,0.43194374442100525,1.0,0.88,0.001
1847,0.3134908080101013,0.4317915737628937,1.0,0.88,0.001
1848,0.31349053978919983,0.4318998456001282,1.0,0.88,0.001
1849,0.3134901225566864,0.43246495723724365,1.0,0.88,0.001
1850,0.3134899139404297,0.4320184290409088,1.0,0.88,0.001
1851,0.31348955631256104,0.43199580907821655,1.0,0.88,0.001
1852,0.3134891390800476,0.43213775753974915,1.0,0.88,0.001
1853,0.31348899006843567,0.4323183298110962,1.0,0.88,0.001
1854,0.31348857283592224,0.4321073889732361,1.0,0.88,0.001
1855,0.3134884238243103,0.4321414828300476,1.0,0.88,0.001
1856,0.3134881258010864,0.4318658709526062,1.0,0.88,0.001
1857,0.31348785758018494,0.4322190582752228,1.0,0.88,0.001
1858,0.31348761916160583,0.4321429431438446,1.0,0.88,0.001
1859,0.3134872317314148,0.43184322118759155,1.0,0.88,0.001
1860,0.3134869635105133,0.4323441982269287,1.0,0.88,0.001
1861,0.31348660588264465,0.4321606755256653,1.0,0.88,0.001
1862,0.31348639726638794,0.43237143754959106,1.0,0.88,0.001
1863,0.3134860694408417,0.4320002496242523,1.0,0.88,0.001
1864,0.3134857714176178,0.43178027868270874,1.0,0.88,0.001
1865,0.3134855329990387,0.43219515681266785,1.0,0.88,0.001
1866,0.3134852647781372,0.43230122327804565,1.0,0.88,0.001
1867,0.3134850263595581,0.43198487162590027,1.0,0.88,0.001
1868,0.31348469853401184,0.4321309030056,1.0,0.88,0.001
1869,0.3134843111038208,0.4322148263454437,1.0,0.88,0.001
1870,0.31348398327827454,0.43181464076042175,1.0,0.88,0.001
1871,0.31348368525505066,0.4320906698703766,1.0,0.88,0.001
1872,0.31348344683647156,0.43252822756767273,1.0,0.88,0.001
1873,0.31348320841789246,0.43201228976249695,1.0,0.88,0.001
1874,0.31348294019699097,0.4321615993976593,1.0,0.88,0.001
1875,0.3134826719760895,0.4321362376213074,1.0,0.88,0.001
1876,0.313482403755188,0.43194666504859924,1.0,0.88,0.001
1877,0.31348198652267456,0.43261662125587463,1.0,0.88,0.001
1878,0.31348171830177307,0.4322502911090851,1.0,0.88,0.001
1879,0.3134814500808716,0.4317144453525543,1.0,0.88,0.001
1880,0.3134811520576477,0.43208882212638855,1.0,0.88,0.001
1881,0.31348082423210144,0.432376503944397,1.0,0.88,0.0007937005259840996
1882,0.3134806156158447,0.43251124024391174,1.0,0.88,0.0007937005259840996
1883,0.3134802579879761,0.43191027641296387,1.0,0.88,0.0007937005259840996
1884,0.3134801387786865,0.431880384683609,1.0,0.88,0.0007937005259840996
1885,0.31347987055778503,0.43191632628440857,1.0,0.88,0.0007937005259840996
1886,0.3134797513484955,0.43276581168174744,1.0,0.88,0.0007937005259840996
1887,0.3134795129299164,0.4324050843715668,1.0,0.88,0.0007937005259840996
1888,0.3134792447090149,0.43206024169921875,1.0,0.88,0.0007937005259840996
1889,0.31347909569740295,0.4319940507411957,1.0,0.88,0.0007937005259840996
1890,0.3134787082672119,0.4321504533290863,1.0,0.88,0.0007937005259840996
1891,0.3134785592556,0.4322053790092468,1.0,0.88,0.0007937005259840996
1892,0.31347835063934326,0.4324502646923065,1.0,0.88,0.0007937005259840996
1893,0.31347817182540894,0.43222737312316895,1.0,0.88,0.0007937005259840996
1894,0.31347793340682983,0.4318011403083801,1.0,0.88,0.0007937005259840996
1895,0.31347769498825073,0.43227046728134155,1.0,0.88,0.0007937005259840996
1896,0.31347763538360596,0.43250247836112976,1.0,0.88,0.0007937005259840996
1897,0.31347739696502686,0.4324735701084137,1.0,0.88,0.0007937005259840996
1898,0.31347712874412537,0.43204963207244873,1.0,0.88,0.0007937005259840996
1899,0.3134768605232239,0.4320552945137024,1.0,0.88,0.0007937005259840996
1900,0.31347665190696716,0.43226706981658936,1.0,0.88,0.0007937005259840996
1901,0.31347641348838806,0.43234944343566895,1.0,0.88,0.0007937005259840996
1902,0.3134761452674866,0.43222445249557495,1.0,0.88,0.0007937005259840996
1903,0.31347596645355225,0.4319203197956085,1.0,0.88,0.0007937005259840996
1904,0.31347569823265076,0.4322111904621124,1.0,0.88,0.0007937005259840996
1905,0.31347551941871643,0.43240317702293396,1.0,0.88,0.0007937005259840996
1906,0.3134753704071045,0.43241387605667114,1.0,0.88,0.0007937005259840996
1907,0.3134751617908478,0.4321860373020172,1.0,0.88,0.0007937005259840996
1908,0.3134748935699463,0.43200719356536865,1.0,0.88,0.0007937005259840996
1909,0.31347471475601196,0.4322109520435333,1.0,0.88,0.0007937005259840996
1910,0.31347453594207764,0.43251141905784607,1.0,0.88,0.0007937005259840996
1911,0.31347426772117615,0.4321729242801666,1.0,0.88,0.0007937005259840996
1912,0.3134741485118866,0.43226271867752075,1.0,0.88,0.0007937005259840996
1913,0.31347382068634033,0.4321826100349426,1.0,0.88,0.0007937005259840996
1914,0.3134736716747284,0.43216389417648315,1.0,0.88,0.0007937005259840996
1915,0.3134736120700836,0.43225550651550293,1.0,0.88,0.0007937005259840996
1916,0.31347325444221497,0.4323585033416748,1.0,0.88,0.0007937005259840996
1917,0.3134731352329254,0.43214938044548035,1.0,0.88,0.0007937005259840996
1918,0.3134728670120239,0.43241894245147705,1.0,0.88,0.0007937005259840996
1919,0.313472718000412,0.4320136308670044,1.0,0.88,0.0007937005259840996
1920,0.3134723901748657,0.43207716941833496,1.0,0.88,0.0007937005259840996
1921,0.31347227096557617,0.4324840307235718,1.0,0.88,0.0007937005259840996
1922,0.31347206234931946,0.4324202239513397,1.0,0.88,0.0007937005259840996
1923,0.3134717643260956,0.43236804008483887,1.0,0.88,0.0007937005259840996
1924,0.31347161531448364,0.4321152865886688,1.0,0.88,0.0007937005259840996
1925,0.31347134709358215,0.43211251497268677,1.0,0.88,0.0007937005259840996
1926,0.3134711980819702,0.4322424829006195,1.0,0.88,0.0007937005259840996
1927,0.3134709596633911,0.43227264285087585,1.0,0.88,0.0007937005259840996
1928,0.3134708106517792,0.43244144320487976,1.0,0.88,0.0007937005259840996
1929,0.3134705126285553,0.43233367800712585,1.0,0.88,0.0007937005259840996
1930,0.3134704530239105,0.4321219325065613,1.0,0.88,0.0007937005259840996
1931,0.31347012519836426,0.43217015266418457,1.0,0.88,0.0007937005259840996
1932,0.3134700655937195,0.43244239687919617,1.0,0.88,0.0007937005259840996
1933,0.3134697675704956,0.43211546540260315,1.0,0.88,0.0007937005259840996
1934,0.3134695291519165,0.43229711055755615,1.0,0.88,0.0007937005259840996
1935,0.3134693205356598,0.43210068345069885,1.0,0.88,0.0007937005259840996
1936,0.3134690523147583,0.43218010663986206,1.0,0.88,0.0007937005259840996
1937,0.31346890330314636,0.43240582942962646,1.0,0.88,0.0007937005259840996
1938,0.31346869468688965,0.4323313236236572,1.0,0.88,0.0007937005259840996
1939,0.31346842646598816,0.43232986330986023,1.0,0.88,0.0007937005259840996
1940,0.3134681284427643,0.4322318732738495,1.0,0.88,0.0007937005259840996
1941,0.31346794962882996,0.4320317804813385,1.0,0.88,0.0007937005259840996
1942,0.3134678900241852,0.43197280168533325,1.0,0.88,0.0007937005259840996
1943,0.3134675920009613,0.4323316812515259,1.0,0.88,0.0007937005259840996
1944,0.313467413187027,0.4324578046798706,1.0,0.88,0.0007937005259840996
1945,0.31346726417541504,0.4321826696395874,1.0,0.88,0.0007937005259840996
1946,0.3134670853614807,0.4321843385696411,1.0,0.88,0.0007937005259840996
1947,0.3134669065475464,0.43209782242774963,1.0,0.88,0.0007937005259840996
1948,0.3134666681289673,0.4321916103363037,1.0,0.88,0.0007937005259840996
1949,0.3134664297103882,0.4323519468307495,1.0,0.88,0.0007937005259840996
1950,0.31346628069877625,0.43224796652793884,1.0,0.88,0.0007937005259840996
1951,0.3134661614894867,0.4321514964103699,1.0,0.88,0.0007937005259840996
1952,0.3134658932685852,0.43211737275123596,1.0,0.88,0.0007937005259840996
1953,0.31346574425697327,0.43250590562820435,1.0,0.88,0.0007937005259840996
1954,0.31346556544303894,0.43239113688468933,1.0,0.88,0.0007937005259840996
1955,0.3134653866291046,0.43243616819381714,1.0,0.88,0.0007937005259840996
1956,0.3134652078151703,0.43213069438934326,1.0,0.88,0.0007937005259840996
1957,0.3134649991989136,0.4318448007106781,1.0,0.88,0.0007937005259840996
1958,0.3134647011756897,0.43207600712776184,1.0,0.88,0.0007937005259840996
1959,0.3134644627571106,0.43240898847579956,1.0,0.88,0.0007937005259840996
1960,0.31346428394317627,0.4327186346054077,1.0,0.88,0.0007937005259840996
1961,0.31346395611763,0.4319249391555786,1.0,0.88,0.0007937005259840996
1962,0.3134639263153076,0.4319639205932617,1.0,0.88,0.0007937005259840996
1963,0.3134636878967285,0.432158499956131,1.0,0.88,0.0007937005259840996
1964,0.3134634494781494,0.4324411451816559,1.0,0.88,0.0007937005259840996
1965,0.3134632110595703,0.43249061703681946,1.0,0.88,0.0007937005259840996
1966,0.3134629726409912,0.4324212372303009,1.0,0.88,0.0007937005259840996
1967,0.3134628236293793,0.4320176839828491,1.0,0.88,0.0007937005259840996
1968,0.31346258521080017,0.43195781111717224,1.0,0.88,0.0007937005259840996
1969,0.31346240639686584,0.43237414956092834,1.0,0.88,0.0007937005259840996
1970,0.31346219778060913,0.43249380588531494,1.0,0.88,0.0007937005259840996
1971,0.31346195936203003,0.4324612319469452,1.0,0.88,0.0007937005259840996
1972,0.3134618401527405,0.4320317804813385,1.0,0.88,0.0007937005259840996
1973,0.3134615421295166,0.4318492114543915,1.0,0.88,0.0007937005259840996
1974,0.31346142292022705,0.4321584403514862,1.0,0.88,0.0007937005259840996
1975,0.31346118450164795,0.4322690963745117,1.0,0.88,0.0007937005259840996
1976,0.3134610652923584,0.43237465620040894,1.0,0.88,0.0007937005259840996
1977,0.3134608566761017,0.4324536621570587,1.0,0.88,0.0007937005259840996
1978,0.31346064805984497,0.43236419558525085,1.0,0.88,0.0007937005259840996
1979,0.31346040964126587,0.4320470094680786,1.0,0.88,0.0007937005259840996
1980,0.31346023082733154,0.43192097544670105,1.0,0.88,0.0007937005259840996
1981,0.313460111618042,0.4321790635585785,1.0,0.88,0.0007937005259840996
1982,0.3134598433971405,0.4322859048843384,1.0,0.88,0.0007937005259840996
1983,0.3134597837924957,0.4321925640106201,1.0,0.88,0.0007937005259840996
1984,0.3134596049785614,0.43236374855041504,1.0,0.88,0.0006299605249474364
1985,0.3134594261646271,0.43204718828201294,1.0,0.88,0.0006299605249474364
1986,0.3134593069553375,0.43216654658317566,1.0,0.88,0.0006299605249474364
1987,0.31345921754837036,0.43204429745674133,1.0,0.88,0.0006299605249474364
1988,0.31345900893211365,0.4323427081108093,1.0,0.88,0.0006299605249474364
1989,0.3134588897228241,0.43223753571510315,1.0,0.88,0.0006299605249474364
1990,0.31345874071121216,0.4322165250778198,1.0,0.88,0.0006299605249474364
1991,0.3134586215019226,0.43239304423332214,1.0,0.88,0.0006299605249474364
1992,0.31345847249031067,0.43221336603164673,1.0,0.88,0.0006299605249474364
1993,0.31345826387405396,0.4320903420448303,1.0,0.88,0.0006299605249474364
1994,0.3134581446647644,0.43205928802490234,1.0,0.88,0.0006299605249474364
1995,0.31345799565315247,0.43233439326286316,1.0,0.88,0.0006299605249474364
1996,0.31345778703689575,0.43244561553001404,1.0,0.88,0.0006299605249474364
1997,0.313457727432251,0.4323848783969879,1.0,0.88,0.0006299605249474364
1998,0.31345751881599426,0.43211448192596436,1.0,0.88,0.0006299605249474364
1999,0.3134573698043823,0.43218541145324707,1.0,0.88,0.0006299605249474364
