,train loss,val loss,train acc,val acc,lr
0,0.6276644468307495,0.5813929438591003,0.69,0.73,0.001
1,0.5401473045349121,0.5608150959014893,0.77,0.76,0.001
2,0.5253039598464966,0.5533189177513123,0.77,0.74,0.001
3,0.5142576098442078,0.5429943203926086,0.79,0.74,0.001
4,0.5009424090385437,0.531276285648346,0.79,0.8,0.001
5,0.48726940155029297,0.5195602774620056,0.82,0.82,0.001
6,0.47422078251838684,0.507739245891571,0.84,0.79,0.001
7,0.46076077222824097,0.49992838501930237,0.88,0.79,0.001
8,0.45050346851348877,0.4956394135951996,0.89,0.79,0.001
9,0.4439978301525116,0.4908790588378906,0.89,0.8,0.001
10,0.43783244490623474,0.4862292408943176,0.89,0.8,0.001
11,0.4328080117702484,0.48203614354133606,0.9,0.81,0.001
12,0.4283629357814789,0.47971129417419434,0.91,0.81,0.001
13,0.4239085018634796,0.478224515914917,0.91,0.81,0.001
14,0.4197969436645508,0.4756346046924591,0.91,0.81,0.001
15,0.4153580963611603,0.47176793217658997,0.92,0.82,0.001
16,0.41146746277809143,0.46833065152168274,0.93,0.82,0.001
17,0.4072268009185791,0.4666244387626648,0.93,0.83,0.001
18,0.40330618619918823,0.46403267979621887,0.95,0.82,0.001
19,0.39919692277908325,0.46090957522392273,0.95,0.84,0.001
20,0.39561665058135986,0.45842647552490234,0.95,0.85,0.001
21,0.39171135425567627,0.45698776841163635,0.95,0.86,0.001
22,0.38813742995262146,0.45429742336273193,0.96,0.86,0.001
23,0.3845115303993225,0.4520042836666107,0.96,0.86,0.001
24,0.3808318078517914,0.4509868621826172,0.96,0.86,0.001
25,0.3775671422481537,0.4480028450489044,0.96,0.87,0.001
26,0.37438347935676575,0.4488593637943268,0.97,0.87,0.001
27,0.3711727559566498,0.44538185000419617,0.97,0.87,0.001
28,0.3681373596191406,0.4448311924934387,0.97,0.86,0.001
29,0.3651007115840912,0.4425581991672516,0.98,0.85,0.001
30,0.362328439950943,0.4408422112464905,0.98,0.88,0.001
31,0.35977622866630554,0.43933963775634766,0.98,0.87,0.001
32,0.35749706625938416,0.43893322348594666,0.98,0.88,0.001
33,0.35561081767082214,0.4365408420562744,0.98,0.87,0.001
34,0.3536839783191681,0.43698301911354065,0.98,0.88,0.001
35,0.35146424174308777,0.4342736005783081,0.98,0.88,0.001
36,0.34938985109329224,0.4324568510055542,0.98,0.88,0.001
37,0.34798988699913025,0.4316236078739166,0.98,0.88,0.001
38,0.3467681407928467,0.43016043305397034,0.98,0.89,0.001
39,0.3452392816543579,0.4259076714515686,0.98,0.88,0.001
40,0.34381043910980225,0.423392117023468,0.98,0.88,0.001
41,0.34274715185165405,0.42097342014312744,0.98,0.9,0.001
42,0.34187182784080505,0.41838401556015015,0.98,0.9,0.001
43,0.34072935581207275,0.41550904512405396,0.98,0.92,0.001
44,0.3393988013267517,0.4117840528488159,0.98,0.91,0.001
45,0.3379947543144226,0.40875309705734253,0.98,0.92,0.001
46,0.3362005650997162,0.4071168005466461,0.98,0.92,0.001
47,0.33492839336395264,0.41174304485321045,0.99,0.91,0.001
48,0.33391571044921875,0.4023604094982147,0.99,0.94,0.001
49,0.3326599895954132,0.39981910586357117,0.99,0.93,0.001
50,0.3312363028526306,0.401342511177063,0.99,0.94,0.001
51,0.33083611726760864,0.3992314040660858,0.99,0.94,0.001
52,0.3302120566368103,0.4001483619213104,0.99,0.92,0.001
53,0.32922855019569397,0.4007156491279602,0.99,0.92,0.001
54,0.32900527119636536,0.40253502130508423,0.99,0.92,0.001
55,0.3286338150501251,0.399562269449234,0.99,0.91,0.001
56,0.3277795910835266,0.39578333497047424,0.99,0.92,0.001
57,0.3275228440761566,0.3927513360977173,0.99,0.94,0.001
58,0.3272387981414795,0.39179039001464844,0.99,0.94,0.001
59,0.32677701115608215,0.3933320939540863,0.99,0.93,0.001
60,0.3267020881175995,0.39241957664489746,0.99,0.94,0.001
61,0.3263048231601715,0.3930073082447052,0.99,0.93,0.001
62,0.32610175013542175,0.39300620555877686,0.99,0.93,0.001
63,0.3259122967720032,0.39196768403053284,0.99,0.93,0.001
64,0.32569462060928345,0.392024964094162,0.99,0.93,0.001
65,0.32558807730674744,0.39164841175079346,0.99,0.93,0.001
66,0.3253486156463623,0.39120596647262573,0.99,0.93,0.001
67,0.32531437277793884,0.389201819896698,0.99,0.94,0.001
68,0.3251339793205261,0.3892015516757965,0.99,0.94,0.001
69,0.325082391500473,0.38982102274894714,0.99,0.92,0.001
70,0.3249319791793823,0.39103835821151733,0.99,0.92,0.001
71,0.3249003291130066,0.3896695673465729,0.99,0.93,0.001
72,0.32477790117263794,0.3879646360874176,0.99,0.93,0.001
73,0.32472145557403564,0.38681483268737793,0.99,0.93,0.001
74,0.3246196508407593,0.38728049397468567,0.99,0.93,0.001
75,0.3245927095413208,0.3880627751350403,0.99,0.93,0.001
76,0.3245166838169098,0.390708327293396,0.99,0.93,0.001
77,0.32447734475135803,0.3932456076145172,0.99,0.92,0.001
78,0.3244081139564514,0.39277705550193787,0.99,0.92,0.001
79,0.3243829607963562,0.3902653753757477,0.99,0.92,0.001
80,0.3243277072906494,0.38844433426856995,0.99,0.93,0.001
81,0.32429569959640503,0.3874475955963135,0.99,0.93,0.001
82,0.32425248622894287,0.3878403902053833,0.99,0.92,0.001
83,0.3242233395576477,0.3889107406139374,0.99,0.92,0.001
84,0.3241924047470093,0.38985303044319153,0.99,0.92,0.001
85,0.3241617679595947,0.3908388614654541,0.99,0.92,0.001
86,0.3241380453109741,0.3907218277454376,0.99,0.92,0.001
87,0.3241063058376312,0.38987886905670166,0.99,0.92,0.001
88,0.32408738136291504,0.3880480229854584,0.99,0.92,0.001
89,0.3240603506565094,0.38748207688331604,0.99,0.93,0.001
90,0.324044406414032,0.3877076208591461,0.99,0.93,0.001
91,0.32402095198631287,0.38841456174850464,0.99,0.92,0.001
92,0.3240026831626892,0.38854682445526123,0.99,0.92,0.001
93,0.3239852488040924,0.38875046372413635,0.99,0.92,0.001
94,0.32396742701530457,0.3893328011035919,0.99,0.92,0.001
95,0.3239534795284271,0.38996559381484985,0.99,0.92,0.001
96,0.323934942483902,0.3899332284927368,0.99,0.92,0.001
97,0.32392191886901855,0.38928645849227905,0.99,0.92,0.001
98,0.32390719652175903,0.3888939321041107,0.99,0.92,0.001
99,0.3238946795463562,0.3889334499835968,0.99,0.92,0.001
100,0.32388225197792053,0.38884323835372925,0.99,0.92,0.001
101,0.32386934757232666,0.3884298801422119,0.99,0.93,0.001
102,0.3238585591316223,0.38806769251823425,0.99,0.93,0.001
103,0.32384631037712097,0.38811931014060974,0.99,0.93,0.001
104,0.3238367438316345,0.38865479826927185,0.99,0.92,0.001
105,0.32382598519325256,0.3889962136745453,0.99,0.92,0.001
106,0.323816180229187,0.3888085186481476,0.99,0.92,0.001
107,0.3238071799278259,0.38830456137657166,0.99,0.93,0.001
108,0.32379788160324097,0.3880656361579895,0.99,0.93,0.001
109,0.3237893581390381,0.3879261314868927,0.99,0.93,0.001
110,0.3237802982330322,0.38795435428619385,0.99,0.93,0.001
111,0.3237724304199219,0.38795235753059387,0.99,0.93,0.001
112,0.3237646520137787,0.3882131576538086,0.99,0.93,0.001
113,0.3237570524215698,0.3885200619697571,0.99,0.93,0.001
114,0.3237498104572296,0.38891637325286865,0.99,0.92,0.001
115,0.3237422704696655,0.38889050483703613,0.99,0.92,0.001
116,0.32373565435409546,0.3885800540447235,0.99,0.92,0.001
117,0.3237287402153015,0.38841912150382996,0.99,0.92,0.001
118,0.32372230291366577,0.3882681131362915,0.99,0.92,0.001
119,0.3237157464027405,0.38831719756126404,0.99,0.92,0.001
120,0.32370975613594055,0.38833943009376526,0.99,0.92,0.001
121,0.32370367646217346,0.38813820481300354,0.99,0.92,0.001
122,0.3236978054046631,0.3882744610309601,0.99,0.92,0.001
123,0.32369208335876465,0.3883633315563202,0.99,0.92,0.001
124,0.323686420917511,0.38826191425323486,0.99,0.92,0.001
125,0.32368090748786926,0.38818541169166565,0.99,0.92,0.001
126,0.3236757218837738,0.3879552483558655,0.99,0.92,0.001
127,0.3236703872680664,0.38794249296188354,0.99,0.92,0.001
128,0.32366544008255005,0.3880905210971832,0.99,0.92,0.001
129,0.3236601948738098,0.3881599009037018,0.99,0.92,0.001
130,0.3236556351184845,0.3879976272583008,0.99,0.92,0.001
131,0.32365086674690247,0.3880522847175598,0.99,0.92,0.001
132,0.32364630699157715,0.3879011273384094,0.99,0.92,0.001
133,0.32364195585250854,0.3879650831222534,0.99,0.92,0.001
134,0.32363754510879517,0.3880261480808258,0.99,0.92,0.001
135,0.32363322377204895,0.38798171281814575,0.99,0.92,0.001
136,0.32362887263298035,0.38791903853416443,0.99,0.92,0.001
137,0.3236246407032013,0.38803935050964355,0.99,0.92,0.001
138,0.32362061738967896,0.3880815804004669,0.99,0.92,0.001
139,0.3236166834831238,0.3879817724227905,0.99,0.92,0.001
140,0.323612779378891,0.3877947926521301,0.99,0.93,0.001
141,0.32360899448394775,0.3877856731414795,0.99,0.93,0.001
142,0.32360514998435974,0.387847363948822,0.99,0.92,0.001
143,0.32360121607780457,0.38784486055374146,0.99,0.92,0.001
144,0.3235977590084076,0.38772833347320557,0.99,0.93,0.001
145,0.32359424233436584,0.38769254088401794,0.99,0.93,0.001
146,0.3235907256603241,0.3877745568752289,0.99,0.93,0.001
147,0.3235872983932495,0.3877997100353241,0.99,0.92,0.001
148,0.32358378171920776,0.38773849606513977,0.99,0.93,0.001
149,0.3235805928707123,0.3876663148403168,0.99,0.93,0.001
150,0.3235773742198944,0.3876630365848541,0.99,0.93,0.001
151,0.32357415556907654,0.3875506520271301,0.99,0.93,0.001
152,0.32357093691825867,0.3875069320201874,0.99,0.93,0.001
153,0.3235679566860199,0.3875402808189392,0.99,0.93,0.001
154,0.3235647976398468,0.38745203614234924,0.99,0.93,0.001
155,0.3235618472099304,0.38743335008621216,0.99,0.93,0.001
156,0.3235589265823364,0.3874039053916931,0.99,0.93,0.001
157,0.32355591654777527,0.3874318599700928,0.99,0.93,0.001
158,0.323553204536438,0.38760361075401306,0.99,0.93,0.001
159,0.3235502541065216,0.38741353154182434,0.99,0.93,0.001
160,0.32354751229286194,0.38745585083961487,0.99,0.93,0.001
161,0.32354477047920227,0.3873830735683441,0.99,0.93,0.001
162,0.3235420882701874,0.38723018765449524,0.99,0.93,0.001
163,0.32353946566581726,0.38723114132881165,0.99,0.93,0.001
164,0.3235369622707367,0.38719406723976135,0.99,0.93,0.001
165,0.32353439927101135,0.38720229268074036,0.99,0.93,0.001
166,0.32353174686431885,0.38734376430511475,0.99,0.93,0.001
167,0.32352933287620544,0.3871883451938629,0.99,0.93,0.001
168,0.3235269784927368,0.38731610774993896,0.99,0.93,0.001
169,0.3235245645046234,0.3871373236179352,0.99,0.93,0.001
170,0.32352226972579956,0.38715866208076477,0.99,0.93,0.001
171,0.3235200047492981,0.3872135877609253,0.99,0.93,0.001
172,0.32351765036582947,0.38722625374794006,0.99,0.93,0.001
173,0.3235154449939728,0.3872581422328949,0.99,0.93,0.001
174,0.32351329922676086,0.38734424114227295,0.99,0.93,0.001
175,0.323511004447937,0.3872426748275757,0.99,0.93,0.001
176,0.3235088586807251,0.3871661424636841,0.99,0.93,0.001
177,0.32350674271583557,0.3871540427207947,0.99,0.93,0.001
178,0.32350459694862366,0.3869958221912384,0.99,0.93,0.001
179,0.32350245118141174,0.3870266377925873,0.99,0.93,0.001
180,0.323500394821167,0.3870956301689148,0.99,0.93,0.001
181,0.3234984874725342,0.38714519143104553,0.99,0.93,0.001
182,0.3234964609146118,0.38708409667015076,0.99,0.93,0.001
183,0.323494553565979,0.38715484738349915,0.99,0.93,0.001
184,0.3234925866127014,0.3871425986289978,0.99,0.93,0.001
185,0.32349058985710144,0.3871780335903168,0.99,0.93,0.001
186,0.3234888017177582,0.3871217370033264,0.99,0.93,0.001
187,0.32348692417144775,0.3871151804924011,0.99,0.93,0.001
188,0.32348498702049255,0.38704052567481995,0.99,0.93,0.001
189,0.3234831690788269,0.3870602548122406,0.99,0.93,0.001
190,0.32348132133483887,0.3870716989040375,0.99,0.93,0.001
191,0.32347968220710754,0.38705500960350037,0.99,0.93,0.001
192,0.32347792387008667,0.3871530294418335,0.99,0.93,0.001
193,0.3234761357307434,0.38711658120155334,0.99,0.93,0.001
194,0.3234744668006897,0.38710182905197144,0.99,0.93,0.001
195,0.32347285747528076,0.3870983421802521,0.99,0.93,0.001
196,0.32347118854522705,0.3870203495025635,0.99,0.93,0.001
197,0.32346951961517334,0.3870416283607483,0.99,0.93,0.001
198,0.32346785068511963,0.38699522614479065,0.99,0.93,0.001
199,0.32346630096435547,0.3870411217212677,0.99,0.93,0.001
200,0.32346469163894653,0.3870171010494232,0.99,0.93,0.001
201,0.3234630525112152,0.38699081540107727,0.99,0.93,0.001
202,0.32346150279045105,0.38692083954811096,0.99,0.93,0.001
203,0.3234599828720093,0.3870407044887543,0.99,0.93,0.001
204,0.32345855236053467,0.3870178163051605,0.99,0.93,0.001
205,0.3234570026397705,0.3870784342288971,0.99,0.93,0.001
206,0.3234555125236511,0.38704031705856323,0.99,0.93,0.001
207,0.3234540522098541,0.38687756657600403,0.99,0.93,0.001
208,0.32345259189605713,0.3869749903678894,0.99,0.93,0.001
209,0.32345113158226013,0.3869657814502716,0.99,0.93,0.001
210,0.32344964146614075,0.3870447278022766,0.99,0.93,0.001
211,0.3234483301639557,0.3868880867958069,0.99,0.93,0.001
212,0.323447048664093,0.38694363832473755,0.99,0.93,0.001
213,0.323445588350296,0.3870745897293091,0.99,0.93,0.001
214,0.3234442472457886,0.3870258033275604,0.99,0.93,0.001
215,0.3234429657459259,0.3870185613632202,0.99,0.93,0.001
216,0.32344165444374084,0.38697177171707153,0.99,0.93,0.001
217,0.3234403729438782,0.38689085841178894,0.99,0.93,0.001
218,0.3234390318393707,0.38693809509277344,0.99,0.93,0.001
219,0.32343778014183044,0.38684359192848206,0.99,0.93,0.001
220,0.32343655824661255,0.3868928849697113,0.99,0.93,0.001
221,0.3234352469444275,0.38689422607421875,0.99,0.93,0.001
222,0.3234340250492096,0.3868439495563507,0.99,0.93,0.001
223,0.3234328031539917,0.38694965839385986,0.99,0.93,0.001
224,0.3234315514564514,0.38693252205848694,0.99,0.93,0.001
225,0.3234303593635559,0.3868378698825836,0.99,0.93,0.001
226,0.3234292268753052,0.3867724537849426,0.99,0.93,0.001
227,0.32342803478240967,0.3868461847305298,0.99,0.93,0.001
228,0.32342684268951416,0.386906236410141,0.99,0.93,0.001
229,0.3234257102012634,0.3868846595287323,0.99,0.93,0.001
230,0.3234245777130127,0.38681986927986145,0.99,0.93,0.001
231,0.3234234154224396,0.3868815302848816,0.99,0.93,0.001
232,0.32342231273651123,0.38693106174468994,0.99,0.93,0.001
233,0.3234212398529053,0.3868216276168823,0.99,0.93,0.001
234,0.32342013716697693,0.386808842420578,0.99,0.93,0.001
235,0.3234190046787262,0.38681986927986145,0.99,0.93,0.001
236,0.3234180212020874,0.3868463635444641,0.99,0.93,0.001
237,0.32341694831848145,0.3869483172893524,0.99,0.93,0.001
238,0.3234158456325531,0.3868085443973541,0.99,0.93,0.001
239,0.3234148323535919,0.3867543339729309,0.99,0.93,0.001
240,0.3234137296676636,0.38677337765693665,0.99,0.93,0.001
241,0.3234127461910248,0.38680657744407654,0.99,0.93,0.001
242,0.3234117925167084,0.3866315186023712,0.99,0.93,0.001
243,0.3234107196331024,0.3866721987724304,0.99,0.93,0.001
244,0.323409765958786,0.3866691291332245,0.99,0.93,0.001
245,0.3234087824821472,0.3867134749889374,0.99,0.93,0.001
246,0.32340773940086365,0.3866558074951172,0.99,0.93,0.001
247,0.32340681552886963,0.38672104477882385,0.99,0.93,0.001
248,0.3234058618545532,0.3866080045700073,0.99,0.93,0.001
249,0.32340481877326965,0.3866243362426758,0.99,0.93,0.001
250,0.323403924703598,0.38662517070770264,0.99,0.93,0.001
251,0.3234029710292816,0.3865543007850647,0.99,0.93,0.001
252,0.32340195775032043,0.38661330938339233,0.99,0.93,0.001
253,0.32340100407600403,0.38663730025291443,0.99,0.93,0.001
254,0.3234000504016876,0.3865581750869751,0.99,0.93,0.001
255,0.3233991265296936,0.3866212069988251,0.99,0.93,0.001
256,0.3233981728553772,0.38658255338668823,0.99,0.93,0.001
257,0.32339733839035034,0.38645875453948975,0.99,0.93,0.001
258,0.32339632511138916,0.386422723531723,0.99,0.93,0.001
259,0.32339537143707275,0.38645604252815247,0.99,0.93,0.001
260,0.32339441776275635,0.38635483384132385,0.99,0.93,0.001
261,0.3233933746814728,0.386488139629364,0.99,0.93,0.001
262,0.32339248061180115,0.38640454411506653,0.99,0.93,0.001
263,0.32339149713516235,0.3863148093223572,0.99,0.93,0.001
264,0.32339057326316833,0.3862754702568054,0.99,0.93,0.001
265,0.32338947057724,0.3863288462162018,0.99,0.93,0.001
266,0.3233885169029236,0.3861701190471649,0.99,0.93,0.001
267,0.3233873248100281,0.3860630393028259,0.99,0.93,0.001
268,0.32338619232177734,0.3860301971435547,0.99,0.93,0.001
269,0.32338497042655945,0.3859924077987671,0.99,0.93,0.001
270,0.3233835995197296,0.38586658239364624,0.99,0.93,0.001
271,0.3233821988105774,0.38575276732444763,0.99,0.93,0.001
272,0.32338038086891174,0.38559314608573914,0.99,0.93,0.001
273,0.323378324508667,0.38540172576904297,0.99,0.93,0.001
274,0.32337573170661926,0.3850705623626709,0.99,0.93,0.001
275,0.3233721852302551,0.38451412320137024,0.99,0.93,0.001
276,0.32336699962615967,0.3840040862560272,0.99,0.93,0.001
277,0.3233577013015747,0.38328826427459717,0.99,0.93,0.001
278,0.32333794236183167,0.38140028715133667,0.99,0.93,0.001
279,0.3232768774032593,0.3781529366970062,0.99,0.95,0.001
280,0.32286956906318665,0.4257757067680359,0.99,0.89,0.001
281,0.3190324306488037,0.623211145401001,1.0,0.69,0.001
282,0.3958234488964081,0.48079758882522583,0.9,0.83,0.001
283,0.4330109655857086,0.6324488520622253,0.85,0.67,0.001
284,0.5323226451873779,0.6200000643730164,0.74,0.67,0.001
285,0.503807783126831,0.5231572389602661,0.79,0.78,0.001
286,0.4545239508152008,0.4940183162689209,0.86,0.83,0.001
287,0.4507148265838623,0.4909331798553467,0.85,0.79,0.001
288,0.4493460953235626,0.48672789335250854,0.86,0.81,0.001
289,0.4457281231880188,0.48284560441970825,0.88,0.81,0.001
290,0.44221773743629456,0.4799954295158386,0.86,0.82,0.001
291,0.4345497786998749,0.4778832495212555,0.88,0.82,0.001
292,0.42396363615989685,0.4753884971141815,0.9,0.85,0.001
293,0.41454657912254333,0.47616758942604065,0.9,0.84,0.001
294,0.40751469135284424,0.48181504011154175,0.92,0.82,0.001
295,0.40430912375450134,0.4871859848499298,0.94,0.79,0.001
296,0.40499651432037354,0.4884946048259735,0.93,0.81,0.001
297,0.40346866846084595,0.4883286952972412,0.93,0.79,0.001
298,0.398149311542511,0.4873488247394562,0.94,0.81,0.001
299,0.3934836685657501,0.4832703471183777,0.95,0.81,0.001
300,0.3909429907798767,0.47697120904922485,0.95,0.82,0.001
301,0.38855189085006714,0.4692433476448059,0.95,0.82,0.001
302,0.38463181257247925,0.4578844904899597,0.95,0.83,0.001
303,0.3805784583091736,0.44934993982315063,0.95,0.85,0.001
304,0.3789219558238983,0.4459173083305359,0.95,0.85,0.001
305,0.3760775327682495,0.44284653663635254,0.95,0.86,0.001
306,0.3721809685230255,0.4381673336029053,0.96,0.87,0.001
307,0.370487242937088,0.43294429779052734,0.95,0.88,0.001
308,0.3677433133125305,0.4339703619480133,0.96,0.88,0.001
309,0.36481818556785583,0.4341331124305725,0.96,0.88,0.001
310,0.36289864778518677,0.43396714329719543,0.96,0.88,0.001
311,0.35978224873542786,0.4341057240962982,0.96,0.88,0.001
312,0.35808512568473816,0.430592805147171,0.97,0.88,0.001
313,0.35475167632102966,0.4294584393501282,0.98,0.88,0.001
314,0.35342997312545776,0.4311901330947876,0.98,0.88,0.001
315,0.3503376245498657,0.43260061740875244,0.98,0.87,0.001
316,0.3490428924560547,0.42996716499328613,0.98,0.86,0.001
317,0.3469373285770416,0.4281710088253021,0.98,0.88,0.001
318,0.3460538983345032,0.4287654161453247,0.98,0.87,0.001
319,0.34450092911720276,0.42713072896003723,0.98,0.87,0.001
320,0.34374740719795227,0.4225349426269531,0.98,0.89,0.001
321,0.34244173765182495,0.4198194444179535,0.98,0.89,0.001
322,0.3418615758419037,0.4189563989639282,0.98,0.89,0.001
323,0.3406476080417633,0.4181954860687256,0.98,0.9,0.001
324,0.34007108211517334,0.4156123101711273,0.98,0.9,0.001
325,0.33918944001197815,0.41318604350090027,0.98,0.9,0.001
326,0.33855265378952026,0.4121483266353607,0.98,0.9,0.001
327,0.3378544747829437,0.41249847412109375,0.98,0.9,0.001
328,0.3367987871170044,0.4123309850692749,0.98,0.9,0.001
329,0.3357055187225342,0.41105350852012634,0.98,0.9,0.001
330,0.3337395489215851,0.409151166677475,0.98,0.9,0.001
331,0.3318876326084137,0.4058084189891815,0.99,0.91,0.001
332,0.3306598663330078,0.40263622999191284,0.99,0.91,0.001
333,0.32975566387176514,0.4008578956127167,0.99,0.91,0.001
334,0.32907459139823914,0.39966899156570435,0.99,0.91,0.001
335,0.32888975739479065,0.3970174491405487,0.99,0.91,0.001
336,0.32856112718582153,0.39449334144592285,0.99,0.92,0.001
337,0.328126460313797,0.39487162232398987,0.99,0.92,0.001
338,0.3277207612991333,0.3948601186275482,0.99,0.92,0.001
339,0.3271220922470093,0.3938711881637573,0.99,0.92,0.001
340,0.32657280564308167,0.3924989402294159,0.99,0.92,0.001
341,0.326284259557724,0.3905051350593567,0.99,0.93,0.001
342,0.3260924816131592,0.3887675404548645,0.99,0.94,0.001
343,0.3258745074272156,0.388039231300354,0.99,0.93,0.001
344,0.32569411396980286,0.3878158926963806,0.99,0.93,0.001
345,0.3255774974822998,0.38750120997428894,0.99,0.93,0.001
346,0.32544901967048645,0.3874073326587677,0.99,0.94,0.001
347,0.32529258728027344,0.3878824710845947,0.99,0.94,0.001
348,0.3251121938228607,0.38889065384864807,0.99,0.93,0.001
349,0.32496851682662964,0.3895317316055298,0.99,0.93,0.001
350,0.32486170530319214,0.3894743323326111,0.99,0.93,0.001
351,0.32477158308029175,0.3891417384147644,0.99,0.94,0.001
352,0.3246796131134033,0.388616144657135,0.99,0.94,0.001
353,0.32458651065826416,0.38799917697906494,0.99,0.94,0.001
354,0.3245081603527069,0.38704612851142883,0.99,0.94,0.001
355,0.3244403898715973,0.3861135244369507,0.99,0.94,0.001
356,0.32437941431999207,0.38536012172698975,0.99,0.94,0.001
357,0.3243235647678375,0.38510045409202576,0.99,0.94,0.001
358,0.32426953315734863,0.385089635848999,0.99,0.94,0.001
359,0.3242236077785492,0.385287880897522,0.99,0.93,0.001
360,0.32418811321258545,0.3852847218513489,0.99,0.93,0.001
361,0.3241528570652008,0.3850092589855194,0.99,0.93,0.001
362,0.3241180181503296,0.3846331536769867,0.99,0.93,0.001
363,0.32408463954925537,0.38437384366989136,0.99,0.94,0.001
364,0.3240516781806946,0.38439393043518066,0.99,0.94,0.001
365,0.32402247190475464,0.38456907868385315,0.99,0.94,0.001
366,0.3239983022212982,0.3848296105861664,0.99,0.94,0.001
367,0.3239738941192627,0.38492846488952637,0.99,0.94,0.001
368,0.32394927740097046,0.3850116729736328,0.99,0.94,0.001
369,0.32392555475234985,0.38523057103157043,0.99,0.93,0.001
370,0.323903352022171,0.38556578755378723,0.99,0.93,0.001
371,0.3238826394081116,0.38562628626823425,0.99,0.93,0.001
372,0.32386454939842224,0.3856891989707947,0.99,0.93,0.001
373,0.323848694562912,0.3854350745677948,0.99,0.93,0.001
374,0.32383430004119873,0.38513219356536865,0.99,0.93,0.001
375,0.323820024728775,0.3848445415496826,0.99,0.93,0.001
376,0.323806494474411,0.3844311833381653,0.99,0.93,0.001
377,0.3237934112548828,0.3842436671257019,0.99,0.93,0.001
378,0.3237804174423218,0.38412579894065857,0.99,0.93,0.001
379,0.3237683176994324,0.38421469926834106,0.99,0.93,0.001
380,0.323757141828537,0.3841385543346405,0.99,0.93,0.001
381,0.3237464129924774,0.38419514894485474,0.99,0.93,0.001
382,0.3237358033657074,0.38420727849006653,0.99,0.93,0.0007937005259840996
383,0.32372599840164185,0.3844009339809418,0.99,0.93,0.0007937005259840996
384,0.3237183094024658,0.38452285528182983,0.99,0.93,0.0007937005259840996
385,0.32371100783348083,0.3845931887626648,0.99,0.93,0.0007937005259840996
386,0.3237040042877197,0.3846805691719055,0.99,0.93,0.0007937005259840996
387,0.3236974775791168,0.3847085237503052,0.99,0.93,0.0007937005259840996
388,0.3236909806728363,0.3848181664943695,0.99,0.93,0.0007937005259840996
389,0.32368484139442444,0.38476163148880005,0.99,0.93,0.0007937005259840996
390,0.32367897033691406,0.3846878707408905,0.99,0.93,0.0007937005259840996
391,0.323673278093338,0.38463521003723145,0.99,0.93,0.0007937005259840996
392,0.32366764545440674,0.3845982253551483,0.99,0.93,0.0007937005259840996
393,0.32366248965263367,0.38447701930999756,0.99,0.93,0.0007937005259840996
394,0.32365721464157104,0.38447582721710205,0.99,0.93,0.0007937005259840996
395,0.3236524164676666,0.3844012916088104,0.99,0.93,0.0007937005259840996
396,0.32364776730537415,0.38439446687698364,0.99,0.93,0.0007937005259840996
397,0.3236429691314697,0.3843597173690796,0.99,0.93,0.0007937005259840996
398,0.3236384093761444,0.38428202271461487,0.99,0.93,0.0007937005259840996
399,0.32363390922546387,0.38421496748924255,0.99,0.93,0.0007937005259840996
400,0.3236297369003296,0.38415881991386414,0.99,0.93,0.0007937005259840996
401,0.3236255943775177,0.3841491639614105,0.99,0.93,0.0007937005259840996
402,0.32362163066864014,0.3841792345046997,0.99,0.93,0.0007937005259840996
403,0.32361775636672974,0.3841674029827118,0.99,0.93,0.0007937005259840996
404,0.3236139714717865,0.3840988874435425,0.99,0.93,0.0007937005259840996
405,0.32361018657684326,0.38409528136253357,0.99,0.93,0.0007937005259840996
406,0.3236064910888672,0.384138286113739,0.99,0.93,0.0007937005259840996
407,0.32360297441482544,0.38411030173301697,0.99,0.93,0.0007937005259840996
408,0.32359957695007324,0.3840760886669159,0.99,0.93,0.0007937005259840996
409,0.3235960304737091,0.3840275704860687,0.99,0.93,0.0007937005259840996
410,0.32359275221824646,0.38402029871940613,0.99,0.93,0.0007937005259840996
411,0.3235894739627838,0.38399738073349,0.99,0.93,0.0007937005259840996
412,0.3235863745212555,0.38393375277519226,0.99,0.93,0.0007937005259840996
413,0.3235832452774048,0.38399195671081543,0.99,0.93,0.0007937005259840996
414,0.32358023524284363,0.3839181661605835,0.99,0.93,0.0007937005259840996
415,0.32357731461524963,0.3839026689529419,0.99,0.93,0.0007937005259840996
416,0.32357433438301086,0.3839476704597473,0.99,0.93,0.0007937005259840996
417,0.32357144355773926,0.38388362526893616,0.99,0.93,0.0007937005259840996
418,0.3235686123371124,0.38388359546661377,0.99,0.93,0.0007937005259840996
419,0.3235659897327423,0.383889377117157,0.99,0.93,0.0007937005259840996
420,0.3235631287097931,0.38389527797698975,0.99,0.93,0.0007937005259840996
421,0.32356056571006775,0.38389813899993896,0.99,0.93,0.0007937005259840996
422,0.32355794310569763,0.3839312493801117,0.99,0.93,0.0007937005259840996
423,0.3235552906990051,0.38393187522888184,0.99,0.93,0.0007937005259840996
424,0.32355284690856934,0.383914589881897,0.99,0.93,0.0007937005259840996
425,0.32355040311813354,0.38388270139694214,0.99,0.93,0.0007937005259840996
426,0.323547899723053,0.38391414284706116,0.99,0.93,0.0007937005259840996
427,0.3235456049442291,0.3839239776134491,0.99,0.93,0.0007937005259840996
428,0.32354313135147095,0.3838934004306793,0.99,0.93,0.0007937005259840996
429,0.32354095578193665,0.3839324712753296,0.99,0.93,0.0007937005259840996
430,0.3235386908054352,0.3838672637939453,0.99,0.93,0.0007937005259840996
431,0.3235364854335785,0.3838650584220886,0.99,0.93,0.0007937005259840996
432,0.32353439927101135,0.3837730288505554,0.99,0.93,0.0007937005259840996
433,0.32353219389915466,0.38381028175354004,0.99,0.93,0.0007937005259840996
434,0.3235301971435547,0.38377684354782104,0.99,0.93,0.0007937005259840996
435,0.3235280513763428,0.38377541303634644,0.99,0.93,0.0007937005259840996
436,0.3235260844230652,0.3837604522705078,0.99,0.93,0.0007937005259840996
437,0.32352396845817566,0.38376009464263916,0.99,0.93,0.0007937005259840996
438,0.3235219717025757,0.3837803602218628,0.99,0.93,0.0007937005259840996
439,0.32352012395858765,0.3837408125400543,0.99,0.93,0.0007937005259840996
440,0.32351797819137573,0.3838290274143219,0.99,0.93,0.0007937005259840996
441,0.3235161304473877,0.3837425708770752,0.99,0.93,0.0007937005259840996
442,0.3235141634941101,0.38380172848701477,0.99,0.93,0.0007937005259840996
443,0.32351231575012207,0.38376834988594055,0.99,0.93,0.0007937005259840996
444,0.32351043820381165,0.3837662637233734,0.99,0.93,0.0007937005259840996
445,0.323508620262146,0.38377058506011963,0.99,0.93,0.0007937005259840996
446,0.32350677251815796,0.38370123505592346,0.99,0.93,0.0007937005259840996
447,0.32350510358810425,0.38375625014305115,0.99,0.93,0.0007937005259840996
448,0.3235032558441162,0.3837581276893616,0.99,0.93,0.0007937005259840996
449,0.32350146770477295,0.3837015926837921,0.99,0.93,0.0007937005259840996
450,0.3234998285770416,0.3837736248970032,0.99,0.93,0.0007937005259840996
451,0.3234981894493103,0.38371431827545166,0.99,0.93,0.0007937005259840996
452,0.32349666953086853,0.3837236762046814,0.99,0.93,0.0007937005259840996
453,0.3234950006008148,0.3836495578289032,0.99,0.93,0.0007937005259840996
454,0.3234933614730835,0.3835803270339966,0.99,0.93,0.0007937005259840996
455,0.32349178194999695,0.3835814297199249,0.99,0.93,0.0007937005259840996
456,0.3234901428222656,0.38355761766433716,0.99,0.93,0.0007937005259840996
457,0.32348868250846863,0.3836307227611542,0.99,0.93,0.0007937005259840996
458,0.32348716259002686,0.383595734834671,0.99,0.93,0.0007937005259840996
459,0.3234856426715851,0.38357001543045044,0.99,0.93,0.0007937005259840996
460,0.3234841227531433,0.3835954964160919,0.99,0.93,0.0007937005259840996
461,0.3234826922416687,0.3835664689540863,0.99,0.93,0.0007937005259840996
462,0.3234812915325165,0.3835943341255188,0.99,0.93,0.0007937005259840996
463,0.3234798014163971,0.3836148977279663,0.99,0.93,0.0007937005259840996
464,0.32347846031188965,0.3835616409778595,0.99,0.93,0.0007937005259840996
465,0.32347697019577026,0.3835810422897339,0.99,0.93,0.0007937005259840996
466,0.32347559928894043,0.383548378944397,0.99,0.93,0.0007937005259840996
467,0.32347431778907776,0.3835621774196625,0.99,0.93,0.0007937005259840996
468,0.3234729766845703,0.3835225999355316,0.99,0.93,0.0007937005259840996
469,0.3234715163707733,0.38348281383514404,0.99,0.93,0.0007937005259840996
470,0.32347026467323303,0.38348233699798584,0.99,0.93,0.0007937005259840996
471,0.32346898317337036,0.38349708914756775,0.99,0.93,0.0007937005259840996
472,0.3234676718711853,0.38350245356559753,0.99,0.93,0.0007937005259840996
473,0.3234664499759674,0.3834749162197113,0.99,0.93,0.0007937005259840996
474,0.32346516847610474,0.3834838569164276,0.99,0.93,0.0007937005259840996
475,0.32346397638320923,0.3835103213787079,0.99,0.93,0.0007937005259840996
476,0.32346272468566895,0.38345783948898315,0.99,0.93,0.0007937005259840996
477,0.3234615623950958,0.38352513313293457,0.99,0.93,0.0007937005259840996
478,0.32346034049987793,0.3834637403488159,0.99,0.93,0.0007937005259840996
479,0.32345908880233765,0.38349449634552,0.99,0.93,0.0007937005259840996
480,0.32345786690711975,0.38349440693855286,0.99,0.93,0.0007937005259840996
481,0.323456734418869,0.38342803716659546,0.99,0.93,0.0007937005259840996
482,0.32345569133758545,0.38342827558517456,0.99,0.93,0.0007937005259840996
483,0.32345449924468994,0.383437842130661,0.99,0.93,0.0006299605249474364
484,0.3234533965587616,0.3835359215736389,0.99,0.93,0.0006299605249474364
485,0.3234524428844452,0.38344764709472656,0.99,0.93,0.0006299605249474364
486,0.32345154881477356,0.3834565281867981,0.99,0.93,0.0006299605249474364
487,0.3234507739543915,0.3834910988807678,0.99,0.93,0.0006299605249474364
488,0.32344985008239746,0.38346776366233826,0.99,0.93,0.0006299605249474364
489,0.3234490156173706,0.3834172785282135,0.99,0.93,0.0006299605249474364
490,0.32344815135002136,0.3833925127983093,0.99,0.93,0.0006299605249474364
491,0.3234473466873169,0.38341590762138367,0.99,0.93,0.0006299605249474364
492,0.32344651222229004,0.3834879994392395,0.99,0.93,0.0006299605249474364
493,0.3234456777572632,0.38352930545806885,0.99,0.93,0.0006299605249474364
494,0.32344475388526917,0.38344451785087585,0.99,0.93,0.0006299605249474364
495,0.3234439492225647,0.38344231247901917,0.99,0.93,0.0006299605249474364
496,0.3234431743621826,0.3834753930568695,0.99,0.93,0.0006299605249474364
497,0.32344236969947815,0.38340359926223755,0.99,0.93,0.0006299605249474364
498,0.32344159483909607,0.3834382891654968,0.99,0.93,0.0006299605249474364
499,0.3234407901763916,0.38341233134269714,0.99,0.93,0.0006299605249474364
500,0.3234400153160095,0.3834427297115326,0.99,0.93,0.0006299605249474364
501,0.3234393000602722,0.3834116458892822,0.99,0.93,0.0006299605249474364
502,0.32343849539756775,0.3834031820297241,0.99,0.93,0.0006299605249474364
503,0.32343772053718567,0.3834483027458191,0.99,0.93,0.0006299605249474364
504,0.32343700528144836,0.38339656591415405,0.99,0.93,0.0006299605249474364
505,0.32343629002571106,0.383388489484787,0.99,0.93,0.0006299605249474364
506,0.3234354853630066,0.383454829454422,0.99,0.93,0.0006299605249474364
507,0.3234347105026245,0.38339221477508545,0.99,0.93,0.0006299605249474364
508,0.3234339952468872,0.3834041655063629,0.99,0.93,0.0006299605249474364
509,0.3234332203865051,0.3834063410758972,0.99,0.93,0.0006299605249474364
510,0.32343247532844543,0.3833807408809662,0.99,0.93,0.0006299605249474364
511,0.3234318196773529,0.3833722770214081,0.99,0.93,0.0006299605249474364
512,0.32343101501464844,0.38338515162467957,0.99,0.93,0.0006299605249474364
513,0.32343029975891113,0.3834032714366913,0.99,0.93,0.0006299605249474364
514,0.3234296143054962,0.38341954350471497,0.99,0.93,0.0006299605249474364
515,0.3234289288520813,0.38339003920555115,0.99,0.93,0.0006299605249474364
516,0.32342827320098877,0.3833811581134796,0.99,0.93,0.0006299605249474364
517,0.3234274983406067,0.3833913505077362,0.99,0.93,0.0006299605249474364
518,0.32342690229415894,0.38338229060173035,0.99,0.93,0.0006299605249474364
519,0.3234262466430664,0.3833822011947632,0.99,0.93,0.0006299605249474364
520,0.3234254717826843,0.3834291100502014,0.99,0.93,0.0006299605249474364
521,0.3234248757362366,0.3833730220794678,0.99,0.93,0.0006299605249474364
522,0.32342416048049927,0.3833998441696167,0.99,0.93,0.0006299605249474364
523,0.3234235346317291,0.3833986520767212,0.99,0.93,0.0006299605249474364
524,0.3234228491783142,0.3834077715873718,0.99,0.93,0.0006299605249474364
525,0.3234221339225769,0.3834032714366913,0.99,0.93,0.0006299605249474364
526,0.32342156767845154,0.38339072465896606,0.99,0.93,0.0006299605249474364
527,0.3234208822250366,0.3833918869495392,0.99,0.93,0.0006299605249474364
528,0.3234202265739441,0.3834066689014435,0.99,0.93,0.0006299605249474364
529,0.32341960072517395,0.3833741843700409,0.99,0.93,0.0006299605249474364
530,0.32341891527175903,0.38333117961883545,0.99,0.93,0.0006299605249474364
531,0.3234182596206665,0.383351594209671,0.99,0.93,0.0006299605249474364
532,0.32341763377189636,0.38337767124176025,0.99,0.93,0.0006299605249474364
533,0.3234170079231262,0.383377343416214,0.99,0.93,0.0006299605249474364
534,0.32341644167900085,0.3834038972854614,0.99,0.93,0.0006299605249474364
535,0.3234157860279083,0.383365660905838,0.99,0.93,0.0006299605249474364
536,0.32341521978378296,0.38331735134124756,0.99,0.93,0.0006299605249474364
537,0.3234146535396576,0.3833676278591156,0.99,0.93,0.0006299605249474364
538,0.3234141170978546,0.38332629203796387,0.99,0.93,0.0006299605249474364
539,0.3234134912490845,0.3834041357040405,0.99,0.93,0.0006299605249474364
540,0.3234129250049591,0.38335946202278137,0.99,0.93,0.0006299605249474364
541,0.32341235876083374,0.38331642746925354,0.99,0.93,0.0006299605249474364
542,0.3234117031097412,0.383306086063385,0.99,0.93,0.0006299605249474364
543,0.32341110706329346,0.3833669424057007,0.99,0.93,0.0006299605249474364
544,0.32341060042381287,0.383332759141922,0.99,0.93,0.0006299605249474364
545,0.3234100341796875,0.3833427131175995,0.99,0.93,0.0006299605249474364
546,0.3234094977378845,0.38324764370918274,0.99,0.93,0.0006299605249474364
547,0.323408842086792,0.38332444429397583,0.99,0.93,0.0006299605249474364
548,0.3234083652496338,0.38332095742225647,0.99,0.93,0.0006299605249474364
549,0.32340773940086365,0.3833157420158386,0.99,0.93,0.0006299605249474364
550,0.32340720295906067,0.3832729756832123,0.99,0.93,0.0006299605249474364
551,0.32340672612190247,0.3832927346229553,0.99,0.93,0.0006299605249474364
552,0.3234061002731323,0.3832946717739105,0.99,0.93,0.0006299605249474364
553,0.32340550422668457,0.38327133655548096,0.99,0.93,0.0006299605249474364
554,0.3234049081802368,0.38321682810783386,0.99,0.93,0.0006299605249474364
555,0.32340434193611145,0.383285790681839,0.99,0.93,0.0006299605249474364
556,0.32340389490127563,0.3832502067089081,0.99,0.93,0.0006299605249474364
557,0.32340332865715027,0.38327136635780334,0.99,0.93,0.0006299605249474364
558,0.3234028220176697,0.3832223415374756,0.99,0.93,0.0006299605249474364
559,0.3234022557735443,0.38323459029197693,0.99,0.93,0.0006299605249474364
560,0.3234017491340637,0.3832301199436188,0.99,0.93,0.0006299605249474364
561,0.3234012722969055,0.38321390748023987,0.99,0.93,0.0006299605249474364
562,0.32340073585510254,0.383219838142395,0.99,0.93,0.0006299605249474364
563,0.32340022921562195,0.3832070529460907,0.99,0.93,0.0006299605249474364
564,0.32339969277381897,0.3832353949546814,0.99,0.93,0.0006299605249474364
565,0.32339924573898315,0.3831828236579895,0.99,0.93,0.0006299605249474364
566,0.32339873909950256,0.38321471214294434,0.99,0.93,0.0006299605249474364
567,0.3233982026576996,0.3832493722438812,0.99,0.93,0.0006299605249474364
568,0.3233977258205414,0.3832230269908905,0.99,0.93,0.0006299605249474364
569,0.3233972191810608,0.3832405209541321,0.99,0.93,0.0006299605249474364
570,0.3233967125415802,0.38322705030441284,0.99,0.93,0.0006299605249474364
571,0.3233962655067444,0.38318243622779846,0.99,0.93,0.0006299605249474364
572,0.323395699262619,0.38313475251197815,0.99,0.93,0.0006299605249474364
573,0.3233952224254608,0.3831615746021271,0.99,0.93,0.0006299605249474364
574,0.3233947455883026,0.3831813335418701,0.99,0.93,0.0006299605249474364
575,0.3233943283557892,0.3831784427165985,0.99,0.93,0.0006299605249474364
576,0.323393851518631,0.38317322731018066,0.99,0.93,0.0006299605249474364
577,0.323393315076828,0.3831852674484253,0.99,0.93,0.0006299605249474364
578,0.3233928978443146,0.38317620754241943,0.99,0.93,0.0006299605249474364
579,0.32339242100715637,0.3831886947154999,0.99,0.93,0.0006299605249474364
580,0.3233918249607086,0.38316699862480164,0.99,0.93,0.0006299605249474364
581,0.32339149713516235,0.3831538259983063,0.99,0.93,0.0006299605249474364
582,0.32339105010032654,0.3831462562084198,0.99,0.93,0.0006299605249474364
583,0.3233906626701355,0.3831668794155121,0.99,0.93,0.0006299605249474364
584,0.3233901560306549,0.3831040561199188,0.99,0.93,0.0004999999999999997
585,0.3233897387981415,0.3831544816493988,0.99,0.93,0.0004999999999999997
586,0.3233894407749176,0.3831273317337036,0.99,0.93,0.0004999999999999997
587,0.3233890235424042,0.38310596346855164,0.99,0.93,0.0004999999999999997
588,0.3233886659145355,0.38313329219818115,0.99,0.93,0.0004999999999999997
589,0.32338836789131165,0.38306111097335815,0.99,0.93,0.0004999999999999997
590,0.323388010263443,0.38314950466156006,0.99,0.93,0.0004999999999999997
591,0.32338765263557434,0.383117139339447,0.99,0.93,0.0004999999999999997
592,0.3233872950077057,0.3830951750278473,0.99,0.93,0.0004999999999999997
593,0.3233869671821594,0.3831985890865326,0.99,0.93,0.0004999999999999997
594,0.32338663935661316,0.38312286138534546,0.99,0.93,0.0004999999999999997
595,0.3233863413333893,0.3831018805503845,0.99,0.93,0.0004999999999999997
596,0.32338589429855347,0.3831402063369751,0.99,0.93,0.0004999999999999997
597,0.3233855962753296,0.3831373155117035,0.99,0.93,0.0004999999999999997
598,0.3233853280544281,0.3831450343132019,0.99,0.93,0.0004999999999999997
599,0.3233848810195923,0.3830956518650055,0.99,0.93,0.0004999999999999997
600,0.3233846426010132,0.3830967843532562,0.99,0.93,0.0004999999999999997
601,0.3233843147754669,0.3830946683883667,0.99,0.93,0.0004999999999999997
602,0.32338401675224304,0.3830799460411072,0.99,0.93,0.0004999999999999997
603,0.3233836889266968,0.38309523463249207,0.99,0.93,0.0004999999999999997
604,0.3233833312988281,0.38311007618904114,0.99,0.93,0.0004999999999999997
605,0.3233829438686371,0.3831353783607483,0.99,0.93,0.0004999999999999997
606,0.3233826458454132,0.38310185074806213,0.99,0.93,0.0004999999999999997
607,0.32338228821754456,0.3831118643283844,0.99,0.93,0.0004999999999999997
608,0.32338201999664307,0.38310596346855164,0.99,0.93,0.0004999999999999997
609,0.3233816921710968,0.38310757279396057,0.99,0.93,0.0004999999999999997
610,0.3233813941478729,0.3830798864364624,0.99,0.93,0.0004999999999999997
611,0.32338106632232666,0.3830890357494354,0.99,0.93,0.0004999999999999997
612,0.3233807682991028,0.3830164670944214,0.99,0.93,0.0004999999999999997
613,0.3233804404735565,0.383082777261734,0.99,0.93,0.0004999999999999997
614,0.32338011264801025,0.3830853998661041,0.99,0.93,0.0004999999999999997
615,0.32337987422943115,0.3830454349517822,0.99,0.93,0.0004999999999999997
616,0.3233795166015625,0.3830467462539673,0.99,0.93,0.0004999999999999997
617,0.3233792185783386,0.38302746415138245,0.99,0.93,0.0004999999999999997
618,0.32337886095046997,0.38307079672813416,0.99,0.93,0.0004999999999999997
619,0.3233785629272461,0.3830296993255615,0.99,0.93,0.0004999999999999997
620,0.3233782649040222,0.38302600383758545,0.99,0.93,0.0004999999999999997
621,0.3233779966831207,0.3830444812774658,0.99,0.93,0.0004999999999999997
622,0.3233776390552521,0.38305819034576416,0.99,0.93,0.0004999999999999997
623,0.32337743043899536,0.3831019997596741,0.99,0.93,0.0004999999999999997
624,0.3233770728111267,0.38308948278427124,0.99,0.93,0.0004999999999999997
625,0.3233768939971924,0.3831057846546173,0.99,0.93,0.0004999999999999997
626,0.32337650656700134,0.38308295607566833,0.99,0.93,0.0004999999999999997
627,0.32337620854377747,0.38308146595954895,0.99,0.93,0.0004999999999999997
628,0.3233758807182312,0.3830713927745819,0.99,0.93,0.0004999999999999997
629,0.32337555289268494,0.38304832577705383,0.99,0.93,0.0004999999999999997
630,0.32337531447410583,0.3830236494541168,0.99,0.93,0.0004999999999999997
631,0.32337501645088196,0.383030503988266,0.99,0.93,0.0004999999999999997
632,0.3233747184276581,0.38304591178894043,0.99,0.93,0.0004999999999999997
633,0.3233744502067566,0.3831002414226532,0.99,0.93,0.0004999999999999997
634,0.3233741819858551,0.38305091857910156,0.99,0.93,0.0004999999999999997
635,0.32337382435798645,0.3830808699131012,0.99,0.93,0.0004999999999999997
636,0.32337355613708496,0.38308289647102356,0.99,0.93,0.0004999999999999997
637,0.32337334752082825,0.3830621838569641,0.99,0.93,0.0004999999999999997
638,0.323373019695282,0.3830152451992035,0.99,0.93,0.0004999999999999997
639,0.3233727216720581,0.38304728269577026,0.99,0.93,0.0004999999999999997
640,0.32337242364883423,0.3830428421497345,0.99,0.93,0.0004999999999999997
641,0.32337215542793274,0.3829761743545532,0.99,0.93,0.0004999999999999997
642,0.32337188720703125,0.38301268219947815,0.99,0.93,0.0004999999999999997
643,0.3233715891838074,0.38304954767227173,0.99,0.93,0.0004999999999999997
644,0.3233713209629059,0.3830493688583374,0.99,0.93,0.0004999999999999997
645,0.3233710527420044,0.38302555680274963,0.99,0.93,0.0004999999999999997
646,0.3233707845211029,0.38307103514671326,0.99,0.93,0.0004999999999999997
647,0.32337048649787903,0.38302382826805115,0.99,0.93,0.0004999999999999997
648,0.3233702480792999,0.3830294907093048,0.99,0.93,0.0004999999999999997
649,0.32336997985839844,0.38306185603141785,0.99,0.93,0.0004999999999999997
650,0.32336971163749695,0.3830071985721588,0.99,0.93,0.0004999999999999997
651,0.32336944341659546,0.3830403983592987,0.99,0.93,0.0004999999999999997
652,0.3233691453933716,0.38303035497665405,0.99,0.93,0.0004999999999999997
653,0.3233688771724701,0.383017897605896,0.99,0.93,0.0004999999999999997
654,0.323368638753891,0.38304510712623596,0.99,0.93,0.0004999999999999997
655,0.3233683407306671,0.3830166161060333,0.99,0.93,0.0004999999999999997
656,0.323368102312088,0.3830462694168091,0.99,0.93,0.0004999999999999997
657,0.32336780428886414,0.38297897577285767,0.99,0.93,0.0004999999999999997
658,0.3233676254749298,0.3830307126045227,0.99,0.93,0.0004999999999999997
659,0.32336729764938354,0.38302868604660034,0.99,0.93,0.0004999999999999997
660,0.3233669698238373,0.38300320506095886,0.99,0.93,0.0004999999999999997
661,0.32336676120758057,0.38300028443336487,0.99,0.93,0.0004999999999999997
662,0.32336652278900146,0.38300731778144836,0.99,0.93,0.0004999999999999997
663,0.32336628437042236,0.383045494556427,0.99,0.93,0.0004999999999999997
664,0.32336607575416565,0.3830057382583618,0.99,0.93,0.0004999999999999997
665,0.3233657777309418,0.3830606937408447,0.99,0.93,0.0004999999999999997
666,0.32336556911468506,0.3830457925796509,0.99,0.93,0.0004999999999999997
667,0.32336533069610596,0.38301342725753784,0.99,0.93,0.0004999999999999997
668,0.32336506247520447,0.3830336034297943,0.99,0.93,0.0004999999999999997
669,0.3233647644519806,0.38302475214004517,0.99,0.93,0.0004999999999999997
670,0.3233645558357239,0.38302984833717346,0.99,0.93,0.0004999999999999997
671,0.3233642876148224,0.3830353617668152,0.99,0.93,0.0004999999999999997
672,0.3233640789985657,0.38305485248565674,0.99,0.93,0.0004999999999999997
673,0.3233638405799866,0.38303250074386597,0.99,0.93,0.0004999999999999997
674,0.32336360216140747,0.383040189743042,0.99,0.93,0.0004999999999999997
675,0.3233633041381836,0.38302716612815857,0.99,0.93,0.0004999999999999997
676,0.3233630657196045,0.3830316960811615,0.99,0.93,0.0004999999999999997
677,0.32336288690567017,0.3830140233039856,0.99,0.93,0.0004999999999999997
678,0.3233626186847687,0.3830305337905884,0.99,0.93,0.0004999999999999997
679,0.3233623504638672,0.3829944133758545,0.99,0.93,0.0004999999999999997
680,0.32336220145225525,0.38299065828323364,0.99,0.93,0.0004999999999999997
681,0.32336190342903137,0.3829752802848816,0.99,0.93,0.0004999999999999997
682,0.32336166501045227,0.3829900324344635,0.99,0.93,0.0004999999999999997
683,0.3233613967895508,0.38297444581985474,0.99,0.93,0.0004999999999999997
684,0.32336124777793884,0.3829962909221649,0.99,0.93,0.0004999999999999997
685,0.32336097955703735,0.3829663097858429,0.99,0.93,0.00039685026299204955
686,0.32336071133613586,0.38299503922462463,0.99,0.93,0.00039685026299204955
687,0.3233605921268463,0.3830006718635559,0.99,0.93,0.00039685026299204955
688,0.3233603537082672,0.3830382525920868,0.99,0.93,0.00039685026299204955
689,0.3233601748943329,0.38301658630371094,0.99,0.93,0.00039685026299204955
690,0.32336005568504333,0.38299208879470825,0.99,0.93,0.00039685026299204955
691,0.3233598470687866,0.3830166757106781,0.99,0.93,0.00039685026299204955
692,0.3233596384525299,0.38298624753952026,0.99,0.93,0.00039685026299204955
693,0.3233594596385956,0.3830268979072571,0.99,0.93,0.00039685026299204955
694,0.32335934042930603,0.3830239772796631,0.99,0.93,0.00039685026299204955
695,0.32335910201072693,0.3829776346683502,0.99,0.93,0.00039685026299204955
696,0.323358952999115,0.38301780819892883,0.99,0.93,0.00039685026299204955
697,0.32335877418518066,0.3830169439315796,0.99,0.93,0.00039685026299204955
698,0.32335853576660156,0.3830222189426422,0.99,0.93,0.00039685026299204955
699,0.3233583867549896,0.3830135762691498,0.99,0.93,0.00039685026299204955
700,0.3233582377433777,0.3829854130744934,0.99,0.93,0.00039685026299204955
701,0.32335808873176575,0.3830534815788269,0.99,0.93,0.00039685026299204955
702,0.32335788011550903,0.3830242455005646,0.99,0.93,0.00039685026299204955
703,0.3233577013015747,0.38299915194511414,0.99,0.93,0.00039685026299204955
704,0.323357492685318,0.3829899728298187,0.99,0.93,0.00039685026299204955
705,0.32335740327835083,0.3829493224620819,0.99,0.93,0.00039685026299204955
706,0.3233571946620941,0.38295918703079224,0.99,0.93,0.00039685026299204955
707,0.3233570158481598,0.3829767107963562,0.99,0.93,0.00039685026299204955
708,0.3233568072319031,0.3829847276210785,0.99,0.93,0.00039685026299204955
709,0.3233567178249359,0.38298189640045166,0.99,0.93,0.00039685026299204955
710,0.3233565092086792,0.3830142617225647,0.99,0.93,0.00039685026299204955
711,0.3233562707901001,0.3830029368400574,0.99,0.93,0.00039685026299204955
712,0.32335612177848816,0.38296422362327576,0.99,0.93,0.00039685026299204955
713,0.3233559727668762,0.38300269842147827,0.99,0.93,0.00039685026299204955
714,0.3233557641506195,0.3829954266548157,0.99,0.93,0.00039685026299204955
715,0.32335564494132996,0.3829832077026367,0.99,0.93,0.00039685026299204955
716,0.323355495929718,0.38297539949417114,0.99,0.93,0.00039685026299204955
717,0.3233552873134613,0.38297080993652344,0.99,0.93,0.00039685026299204955
718,0.32335513830184937,0.3829924762248993,0.99,0.93,0.00039685026299204955
719,0.32335495948791504,0.38294774293899536,0.99,0.93,0.00039685026299204955
720,0.3233547508716583,0.3829346001148224,0.99,0.93,0.00039685026299204955
721,0.3233546018600464,0.38297808170318604,0.99,0.93,0.00039685026299204955
722,0.32335442304611206,0.38295409083366394,0.99,0.93,0.00039685026299204955
723,0.3233542740345001,0.38294944167137146,0.99,0.93,0.00039685026299204955
724,0.323354035615921,0.3830038011074066,0.99,0.93,0.00039685026299204955
725,0.32335391640663147,0.3829570412635803,0.99,0.93,0.00039685026299204955
726,0.3233537971973419,0.3829768896102905,0.99,0.93,0.00039685026299204955
727,0.3233536183834076,0.38294517993927,0.99,0.93,0.00039685026299204955
728,0.32335346937179565,0.382973313331604,0.99,0.93,0.00039685026299204955
729,0.32335326075553894,0.3829578757286072,0.99,0.93,0.00039685026299204955
730,0.3233530819416046,0.38298797607421875,0.99,0.93,0.00039685026299204955
731,0.3233529329299927,0.38296958804130554,0.99,0.93,0.00039685026299204955
732,0.32335272431373596,0.38295578956604004,0.99,0.93,0.00039685026299204955
733,0.32335254549980164,0.3829961121082306,0.99,0.93,0.00039685026299204955
734,0.3233524262905121,0.3829243779182434,0.99,0.93,0.00039685026299204955
735,0.32335227727890015,0.38299843668937683,0.99,0.93,0.00039685026299204955
736,0.3233521282672882,0.38292643427848816,0.99,0.93,0.00039685026299204955
737,0.32335197925567627,0.38297736644744873,0.99,0.93,0.00039685026299204955
738,0.3233518600463867,0.3830053210258484,0.99,0.93,0.00039685026299204955
739,0.3233516812324524,0.3829604387283325,0.99,0.93,0.00039685026299204955
740,0.32335150241851807,0.3829764127731323,0.99,0.93,0.00039685026299204955
741,0.32335135340690613,0.3829765021800995,0.99,0.93,0.00039685026299204955
742,0.3233511745929718,0.38295501470565796,0.99,0.93,0.00039685026299204955
743,0.32335102558135986,0.3829534947872162,0.99,0.93,0.00039685026299204955
744,0.32335081696510315,0.3829759657382965,0.99,0.93,0.00039685026299204955
745,0.323350727558136,0.382974773645401,0.99,0.93,0.00039685026299204955
746,0.3233504891395569,0.3829191327095032,0.99,0.93,0.00039685026299204955
747,0.32335036993026733,0.38292425870895386,0.99,0.93,0.00039685026299204955
748,0.3233502507209778,0.3829175531864166,0.99,0.93,0.00039685026299204955
749,0.32335007190704346,0.382895290851593,0.99,0.93,0.00039685026299204955
750,0.3233499228954315,0.38296082615852356,0.99,0.93,0.00039685026299204955
751,0.3233497738838196,0.3829576075077057,0.99,0.93,0.00039685026299204955
752,0.32334956526756287,0.38291114568710327,0.99,0.93,0.00039685026299204955
753,0.3233494460582733,0.3829153776168823,0.99,0.93,0.00039685026299204955
754,0.3233492970466614,0.38291576504707336,0.99,0.93,0.00039685026299204955
755,0.32334914803504944,0.3829176425933838,0.99,0.93,0.00039685026299204955
756,0.3233489990234375,0.38292205333709717,0.99,0.93,0.00039685026299204955
757,0.32334885001182556,0.3829522728919983,0.99,0.93,0.00039685026299204955
758,0.3233487010002136,0.3829337954521179,0.99,0.93,0.00039685026299204955
759,0.3233484923839569,0.3829337954521179,0.99,0.93,0.00039685026299204955
760,0.32334840297698975,0.382940411567688,0.99,0.93,0.00039685026299204955
761,0.3233482241630554,0.3829057812690735,0.99,0.93,0.00039685026299204955
762,0.32334813475608826,0.38290873169898987,0.99,0.93,0.00039685026299204955
763,0.32334792613983154,0.38292285799980164,0.99,0.93,0.00039685026299204955
764,0.323347806930542,0.3828922212123871,0.99,0.93,0.00039685026299204955
765,0.32334765791893005,0.38291847705841064,0.99,0.93,0.00039685026299204955
766,0.3233475089073181,0.38291874527931213,0.99,0.93,0.00039685026299204955
767,0.3233473300933838,0.3829241991043091,0.99,0.93,0.00039685026299204955
768,0.32334721088409424,0.3829076886177063,0.99,0.93,0.00039685026299204955
769,0.3233470022678375,0.3829058110713959,0.99,0.93,0.00039685026299204955
770,0.3233468532562256,0.3828902840614319,0.99,0.93,0.00039685026299204955
771,0.32334667444229126,0.3829404413700104,0.99,0.93,0.00039685026299204955
772,0.3233465552330017,0.3829115033149719,0.99,0.93,0.00039685026299204955
773,0.32334643602371216,0.3828950524330139,0.99,0.93,0.00039685026299204955
774,0.32334625720977783,0.38287097215652466,0.99,0.93,0.00039685026299204955
775,0.32334616780281067,0.3829009234905243,0.99,0.93,0.00039685026299204955
776,0.32334601879119873,0.3828674554824829,0.99,0.93,0.00039685026299204955
777,0.3233458697795868,0.38290226459503174,0.99,0.93,0.00039685026299204955
778,0.32334572076797485,0.3828856945037842,0.99,0.93,0.00039685026299204955
779,0.3233455717563629,0.38290584087371826,0.99,0.93,0.00039685026299204955
780,0.323345422744751,0.3829253315925598,0.99,0.93,0.00039685026299204955
781,0.32334527373313904,0.3828794062137604,0.99,0.93,0.00039685026299204955
782,0.3233451545238495,0.38288554549217224,0.99,0.93,0.00039685026299204955
783,0.32334500551223755,0.3829091787338257,0.99,0.93,0.00039685026299204955
784,0.3233448266983032,0.3829070031642914,0.99,0.93,0.00039685026299204955
785,0.3233446776866913,0.382894903421402,0.99,0.93,0.00039685026299204955
786,0.32334452867507935,0.38294288516044617,0.99,0.93,0.00031498026247371797
787,0.3233443796634674,0.38288161158561707,0.99,0.93,0.00031498026247371797
788,0.323344349861145,0.3829134404659271,0.99,0.93,0.00031498026247371797
789,0.3233441412448883,0.3829009532928467,0.99,0.93,0.00031498026247371797
790,0.32334405183792114,0.3828752636909485,0.99,0.93,0.00031498026247371797
791,0.323343962430954,0.3829108774662018,0.99,0.93,0.00031498026247371797
792,0.32334384322166443,0.3829016387462616,0.99,0.93,0.00031498026247371797
793,0.3233437240123749,0.3829134702682495,0.99,0.93,0.00031498026247371797
794,0.3233436346054077,0.3829232454299927,0.99,0.93,0.00031498026247371797
795,0.32334351539611816,0.3828914761543274,0.99,0.93,0.00031498026247371797
796,0.323343425989151,0.38291990756988525,0.99,0.93,0.00031498026247371797
797,0.3233433663845062,0.38291114568710327,0.99,0.93,0.00031498026247371797
798,0.3233431875705719,0.38293877243995667,0.99,0.93,0.00031498026247371797
799,0.32334303855895996,0.3828694820404053,0.99,0.93,0.00031498026247371797
800,0.3233429789543152,0.38290122151374817,0.99,0.93,0.00031498026247371797
801,0.32334282994270325,0.3828975260257721,0.99,0.93,0.00031498026247371797
802,0.32334282994270325,0.3828979432582855,0.99,0.93,0.00031498026247371797
803,0.32334262132644653,0.38294219970703125,0.99,0.93,0.00031498026247371797
804,0.323342502117157,0.38289332389831543,0.99,0.93,0.00031498026247371797
805,0.3233424425125122,0.38292205333709717,0.99,0.93,0.00031498026247371797
806,0.32334229350090027,0.38292041420936584,0.99,0.93,0.00031498026247371797
807,0.3233422040939331,0.38291001319885254,0.99,0.93,0.00031498026247371797
808,0.32334208488464355,0.3829163610935211,0.99,0.93,0.00031498026247371797
809,0.3233419358730316,0.3828953206539154,0.99,0.93,0.00031498026247371797
810,0.32334187626838684,0.38290050625801086,0.99,0.93,0.00031498026247371797
811,0.3233417272567749,0.3828994333744049,0.99,0.93,0.00031498026247371797
812,0.32334163784980774,0.382904976606369,0.99,0.93,0.00031498026247371797
813,0.3233415484428406,0.3828776478767395,0.99,0.93,0.00031498026247371797
814,0.32334139943122864,0.3829166889190674,0.99,0.93,0.00031498026247371797
815,0.32334133982658386,0.3828914761543274,0.99,0.93,0.00031498026247371797
816,0.3233412206172943,0.3828912377357483,0.99,0.93,0.00031498026247371797
817,0.32334113121032715,0.382912278175354,0.99,0.93,0.00031498026247371797
818,0.3233409821987152,0.3829270601272583,0.99,0.93,0.00031498026247371797
819,0.32334083318710327,0.38289061188697815,0.99,0.93,0.00031498026247371797
820,0.3233407735824585,0.3829152584075928,0.99,0.93,0.00031498026247371797
821,0.32334068417549133,0.38291069865226746,0.99,0.93,0.00031498026247371797
822,0.3233405649662018,0.3828905522823334,0.99,0.93,0.00031498026247371797
823,0.32334044575691223,0.3829140067100525,0.99,0.93,0.00031498026247371797
824,0.32334038615226746,0.3829324245452881,0.99,0.93,0.00031498026247371797
825,0.3233402371406555,0.3829042911529541,0.99,0.93,0.00031498026247371797
826,0.32334017753601074,0.38292282819747925,0.99,0.93,0.00031498026247371797
827,0.3233399987220764,0.38291633129119873,0.99,0.93,0.00031498026247371797
828,0.32333996891975403,0.3829140365123749,0.99,0.93,0.00031498026247371797
829,0.3233398497104645,0.3828875720500946,0.99,0.93,0.00031498026247371797
830,0.3233397603034973,0.38288557529449463,0.99,0.93,0.00031498026247371797
831,0.32333970069885254,0.3829251825809479,0.99,0.93,0.00031498026247371797
832,0.323339581489563,0.38289836049079895,0.99,0.93,0.00031498026247371797
833,0.32333946228027344,0.3828984200954437,0.99,0.93,0.00031498026247371797
834,0.3233392834663391,0.3828928768634796,0.99,0.93,0.00031498026247371797
835,0.3233392834663391,0.38293471932411194,0.99,0.93,0.00031498026247371797
836,0.32333916425704956,0.38288936018943787,0.99,0.93,0.00031498026247371797
837,0.3233390152454376,0.3829013407230377,0.99,0.93,0.00031498026247371797
838,0.32333889603614807,0.3828851580619812,0.99,0.93,0.00031498026247371797
839,0.3233388066291809,0.38290154933929443,0.99,0.93,0.00031498026247371797
840,0.32333874702453613,0.3828791677951813,0.99,0.93,0.00031498026247371797
841,0.3233386278152466,0.38290995359420776,0.99,0.93,0.00031498026247371797
842,0.3233385384082794,0.38289618492126465,0.99,0.93,0.00031498026247371797
843,0.3233383893966675,0.3828818202018738,0.99,0.93,0.00031498026247371797
844,0.32333827018737793,0.38290485739707947,0.99,0.93,0.00031498026247371797
845,0.32333824038505554,0.3829239010810852,0.99,0.93,0.00031498026247371797
846,0.323338121175766,0.38290348649024963,0.99,0.93,0.00031498026247371797
847,0.3233380615711212,0.38288187980651855,0.99,0.93,0.00031498026247371797
848,0.3233378529548645,0.38287708163261414,0.99,0.93,0.00031498026247371797
849,0.3233377933502197,0.38287097215652466,0.99,0.93,0.00031498026247371797
850,0.3233376741409302,0.3828822672367096,0.99,0.93,0.00031498026247371797
851,0.323337584733963,0.38287365436553955,0.99,0.93,0.00031498026247371797
852,0.32333746552467346,0.3828620910644531,0.99,0.93,0.00031498026247371797
853,0.3233373761177063,0.38285550475120544,0.99,0.93,0.00031498026247371797
854,0.32333728671073914,0.3828730285167694,0.99,0.93,0.00031498026247371797
855,0.323337197303772,0.3828928470611572,0.99,0.93,0.00031498026247371797
856,0.32333701848983765,0.3828693628311157,0.99,0.93,0.00031498026247371797
857,0.32333695888519287,0.3828773498535156,0.99,0.93,0.00031498026247371797
858,0.3233368694782257,0.38285714387893677,0.99,0.93,0.00031498026247371797
859,0.32333675026893616,0.3828376531600952,0.99,0.93,0.00031498026247371797
860,0.3233366906642914,0.3828815221786499,0.99,0.93,0.00031498026247371797
861,0.3233366310596466,0.3828492760658264,0.99,0.93,0.00031498026247371797
862,0.32333648204803467,0.38285601139068604,0.99,0.93,0.00031498026247371797
863,0.3233363628387451,0.3828219473361969,0.99,0.93,0.00031498026247371797
864,0.32333624362945557,0.3828640282154083,0.99,0.93,0.00031498026247371797
865,0.3233361840248108,0.3828597664833069,0.99,0.93,0.00031498026247371797
866,0.3233361542224884,0.38283276557922363,0.99,0.93,0.00031498026247371797
867,0.32333603501319885,0.3828521966934204,0.99,0.93,0.00031498026247371797
868,0.3233359158039093,0.3828498125076294,0.99,0.93,0.00031498026247371797
869,0.32333579659461975,0.3828667104244232,0.99,0.93,0.00031498026247371797
870,0.323335736989975,0.3828032314777374,0.99,0.93,0.00031498026247371797
871,0.3233356475830078,0.38285350799560547,0.99,0.93,0.00031498026247371797
872,0.32333552837371826,0.3828459680080414,0.99,0.93,0.00031498026247371797
873,0.3233354091644287,0.3828498125076294,0.99,0.93,0.00031498026247371797
874,0.32333534955978394,0.38286346197128296,0.99,0.93,0.00031498026247371797
875,0.3233352601528168,0.3828639090061188,0.99,0.93,0.00031498026247371797
876,0.3233351409435272,0.38286930322647095,0.99,0.93,0.00031498026247371797
877,0.32333505153656006,0.3828229010105133,0.99,0.93,0.00031498026247371797
878,0.3233349323272705,0.38281741738319397,0.99,0.93,0.00031498026247371797
879,0.32333484292030334,0.3828229010105133,0.99,0.93,0.00031498026247371797
880,0.3233347237110138,0.3828202188014984,0.99,0.93,0.00031498026247371797
881,0.3233346939086914,0.38286033272743225,0.99,0.93,0.00031498026247371797
882,0.32333457469940186,0.3828517198562622,0.99,0.93,0.00031498026247371797
883,0.3233345150947571,0.38282883167266846,0.99,0.93,0.00031498026247371797
884,0.3233344256877899,0.382853627204895,0.99,0.93,0.00031498026247371797
885,0.32333433628082275,0.38283833861351013,0.99,0.93,0.00031498026247371797
886,0.3233341872692108,0.38280361890792847,0.99,0.93,0.00031498026247371797
887,0.32333412766456604,0.38283035159111023,0.99,0.93,0.0002499999999999997
888,0.3233340382575989,0.3828524649143219,0.99,0.93,0.0002499999999999997
889,0.3233339190483093,0.38286861777305603,0.99,0.93,0.0002499999999999997
890,0.32333388924598694,0.3828601837158203,0.99,0.93,0.0002499999999999997
891,0.3233337700366974,0.38286277651786804,0.99,0.93,0.0002499999999999997
892,0.323333740234375,0.38283035159111023,0.99,0.93,0.0002499999999999997
893,0.32333362102508545,0.3828392028808594,0.99,0.93,0.0002499999999999997
894,0.3233335614204407,0.3828524053096771,0.99,0.93,0.0002499999999999997
895,0.3233334422111511,0.3828348219394684,0.99,0.93,0.0002499999999999997
896,0.3233334422111511,0.38284337520599365,0.99,0.93,0.0002499999999999997
897,0.3233333230018616,0.3828835189342499,0.99,0.93,0.0002499999999999997
898,0.3233332335948944,0.38286128640174866,0.99,0.93,0.0002499999999999997
899,0.323333203792572,0.3828589916229248,0.99,0.93,0.0002499999999999997
900,0.32333314418792725,0.38285717368125916,0.99,0.93,0.0002499999999999997
901,0.3233330547809601,0.38283225893974304,0.99,0.93,0.0002499999999999997
902,0.3233330249786377,0.3828510642051697,0.99,0.93,0.0002499999999999997
903,0.32333293557167053,0.3828485608100891,0.99,0.93,0.0002499999999999997
904,0.32333287596702576,0.3828187882900238,0.99,0.93,0.0002499999999999997
905,0.3233327865600586,0.38283175230026245,0.99,0.93,0.0002499999999999997
906,0.32333266735076904,0.3828628957271576,0.99,0.93,0.0002499999999999997
907,0.32333263754844666,0.38281723856925964,0.99,0.93,0.0002499999999999997
908,0.3233325183391571,0.3828386664390564,0.99,0.93,0.0002499999999999997
909,0.3233325183391571,0.38282227516174316,0.99,0.93,0.0002499999999999997
910,0.32333239912986755,0.38284242153167725,0.99,0.93,0.0002499999999999997
911,0.323332279920578,0.38283440470695496,0.99,0.93,0.0002499999999999997
912,0.3233322501182556,0.3828224837779999,0.99,0.93,0.0002499999999999997
913,0.32333219051361084,0.38283881545066833,0.99,0.93,0.0002499999999999997
914,0.3233321011066437,0.38280853629112244,0.99,0.93,0.0002499999999999997
915,0.3233319818973541,0.38284313678741455,0.99,0.93,0.0002499999999999997
916,0.32333195209503174,0.3828089237213135,0.99,0.93,0.0002499999999999997
917,0.3233318626880646,0.38280564546585083,0.99,0.93,0.0002499999999999997
918,0.3233318030834198,0.38285914063453674,0.99,0.93,0.0002499999999999997
919,0.323331743478775,0.3828362226486206,0.99,0.93,0.0002499999999999997
920,0.32333165407180786,0.3828458786010742,0.99,0.93,0.0002499999999999997
921,0.32333165407180786,0.38284605741500854,0.99,0.93,0.0002499999999999997
922,0.3233315348625183,0.38285449147224426,0.99,0.93,0.0002499999999999997
923,0.32333147525787354,0.382843017578125,0.99,0.93,0.0002499999999999997
924,0.32333144545555115,0.3828059732913971,0.99,0.93,0.0002499999999999997
925,0.3233313262462616,0.3828485906124115,0.99,0.93,0.0002499999999999997
926,0.3233312666416168,0.38282328844070435,0.99,0.93,0.0002499999999999997
927,0.32333114743232727,0.3828165531158447,0.99,0.93,0.0002499999999999997
928,0.3233311176300049,0.3828389048576355,0.99,0.93,0.0002499999999999997
929,0.3233310580253601,0.38282471895217896,0.99,0.93,0.0002499999999999997
930,0.32333096861839294,0.38284558057785034,0.99,0.93,0.0002499999999999997
931,0.32333090901374817,0.38283684849739075,0.99,0.93,0.0002499999999999997
932,0.3233307898044586,0.3828028738498688,0.99,0.93,0.0002499999999999997
933,0.32333076000213623,0.3828030824661255,0.99,0.93,0.0002499999999999997
934,0.32333070039749146,0.3828093409538269,0.99,0.93,0.0002499999999999997
935,0.3233306407928467,0.38282310962677,0.99,0.93,0.0002499999999999997
936,0.32333052158355713,0.3828292787075043,0.99,0.93,0.0002499999999999997
937,0.32333049178123474,0.38281646370887756,0.99,0.93,0.0002499999999999997
938,0.32333046197891235,0.38281241059303284,0.99,0.93,0.0002499999999999997
939,0.3233303725719452,0.3828151822090149,0.99,0.93,0.0002499999999999997
940,0.3233303129673004,0.38281726837158203,0.99,0.93,0.0002499999999999997
941,0.32333019375801086,0.3828117251396179,0.99,0.93,0.0002499999999999997
942,0.3233301043510437,0.3827844560146332,0.99,0.93,0.0002499999999999997
943,0.3233300745487213,0.38281604647636414,0.99,0.93,0.0002499999999999997
944,0.3233300447463989,0.3828303813934326,0.99,0.93,0.0002499999999999997
945,0.3233299255371094,0.3827992379665375,0.99,0.93,0.0002499999999999997
946,0.3233298361301422,0.38282886147499084,0.99,0.93,0.0002499999999999997
947,0.32332977652549744,0.38279932737350464,0.99,0.93,0.0002499999999999997
948,0.32332974672317505,0.3828097879886627,0.99,0.93,0.0002499999999999997
949,0.3233296871185303,0.3828315734863281,0.99,0.93,0.0002499999999999997
950,0.3233295679092407,0.38281333446502686,0.99,0.93,0.0002499999999999997
951,0.32332953810691833,0.38280707597732544,0.99,0.93,0.0002499999999999997
952,0.3233294188976288,0.38280388712882996,0.99,0.93,0.0002499999999999997
953,0.3233293890953064,0.3827823996543884,0.99,0.93,0.0002499999999999997
954,0.3233293294906616,0.382808119058609,0.99,0.93,0.0002499999999999997
955,0.32332924008369446,0.38282665610313416,0.99,0.93,0.0002499999999999997
956,0.32332921028137207,0.3828001022338867,0.99,0.93,0.0002499999999999997
957,0.3233291208744049,0.3827991485595703,0.99,0.93,0.0002499999999999997
958,0.32332906126976013,0.3828064203262329,0.99,0.93,0.0002499999999999997
959,0.32332897186279297,0.38280102610588074,0.99,0.93,0.0002499999999999997
960,0.3233289420604706,0.382792204618454,0.99,0.93,0.0002499999999999997
961,0.3233288526535034,0.38279983401298523,0.99,0.93,0.0002499999999999997
962,0.32332879304885864,0.3828059732913971,0.99,0.93,0.0002499999999999997
963,0.3233287036418915,0.382816344499588,0.99,0.93,0.0002499999999999997
964,0.3233286738395691,0.38281702995300293,0.99,0.93,0.0002499999999999997
965,0.32332855463027954,0.38279303908348083,0.99,0.93,0.0002499999999999997
966,0.3233284652233124,0.3828096389770508,0.99,0.93,0.0002499999999999997
967,0.3233284652233124,0.38283345103263855,0.99,0.93,0.0002499999999999997
968,0.3233284056186676,0.38280245661735535,0.99,0.93,0.0002499999999999997
969,0.32332831621170044,0.3828355669975281,0.99,0.93,0.0002499999999999997
970,0.32332828640937805,0.3828392028808594,0.99,0.93,0.0002499999999999997
971,0.3233281970024109,0.382838636636734,0.99,0.93,0.0002499999999999997
972,0.3233281373977661,0.38278862833976746,0.99,0.93,0.0002499999999999997
973,0.3233281373977661,0.38278770446777344,0.99,0.93,0.0002499999999999997
974,0.3233279883861542,0.38280051946640015,0.99,0.93,0.0002499999999999997
975,0.3233279287815094,0.3828205168247223,0.99,0.93,0.0002499999999999997
976,0.323327898979187,0.3828006684780121,0.99,0.93,0.0002499999999999997
977,0.32332783937454224,0.3828115463256836,0.99,0.93,0.0002499999999999997
978,0.3233277499675751,0.3827996850013733,0.99,0.93,0.0002499999999999997
979,0.3233276307582855,0.3827780783176422,0.99,0.93,0.0002499999999999997
980,0.32332760095596313,0.3828219473361969,0.99,0.93,0.0002499999999999997
981,0.32332757115364075,0.38282719254493713,0.99,0.93,0.0002499999999999997
982,0.3233274817466736,0.38279855251312256,0.99,0.93,0.0002499999999999997
983,0.32332736253738403,0.38279300928115845,0.99,0.93,0.0002499999999999997
984,0.32332736253738403,0.38278424739837646,0.99,0.93,0.0002499999999999997
985,0.32332730293273926,0.38277339935302734,0.99,0.93,0.0002499999999999997
986,0.3233272135257721,0.38277602195739746,0.99,0.93,0.0002499999999999997
987,0.3233271539211273,0.3828072249889374,0.99,0.93,0.0002499999999999997
988,0.32332709431648254,0.3827878534793854,0.99,0.93,0.00019842513149602464
989,0.32332703471183777,0.38278812170028687,0.99,0.93,0.00019842513149602464
990,0.3233269453048706,0.38277730345726013,0.99,0.93,0.00019842513149602464
991,0.3233269155025482,0.38279929757118225,0.99,0.93,0.00019842513149602464
992,0.3233269155025482,0.3828021287918091,0.99,0.93,0.00019842513149602464
993,0.32332679629325867,0.38278472423553467,0.99,0.93,0.00019842513149602464
994,0.3233267664909363,0.38279423117637634,0.99,0.93,0.00019842513149602464
995,0.3233267068862915,0.382808655500412,0.99,0.93,0.00019842513149602464
996,0.32332664728164673,0.3828260004520416,0.99,0.93,0.00019842513149602464
997,0.32332655787467957,0.3828052878379822,0.99,0.93,0.00019842513149602464
998,0.3233265280723572,0.38277873396873474,0.99,0.93,0.00019842513149602464
999,0.3233264982700348,0.3828115165233612,0.99,0.93,0.00019842513149602464
1000,0.3233264982700348,0.3828140199184418,0.99,0.93,0.00019842513149602464
1001,0.32332637906074524,0.3827987313270569,0.99,0.93,0.00019842513149602464
1002,0.3233262896537781,0.38278821110725403,0.99,0.93,0.00019842513149602464
1003,0.32332634925842285,0.38279980421066284,0.99,0.93,0.00019842513149602464
1004,0.3233262300491333,0.3827967345714569,0.99,0.93,0.00019842513149602464
1005,0.3233262002468109,0.38278189301490784,0.99,0.93,0.00019842513149602464
1006,0.32332614064216614,0.38277938961982727,0.99,0.93,0.00019842513149602464
1007,0.32332608103752136,0.382796972990036,0.99,0.93,0.00019842513149602464
1008,0.32332608103752136,0.3827912509441376,0.99,0.93,0.00019842513149602464
1009,0.3233259916305542,0.38279423117637634,0.99,0.93,0.00019842513149602464
1010,0.3233259916305542,0.38280829787254333,0.99,0.93,0.00019842513149602464
1011,0.3233259320259094,0.3827919363975525,0.99,0.93,0.00019842513149602464
1012,0.32332587242126465,0.38279956579208374,0.99,0.93,0.00019842513149602464
1013,0.32332584261894226,0.38279393315315247,0.99,0.93,0.00019842513149602464
1014,0.3233257532119751,0.38279667496681213,0.99,0.93,0.00019842513149602464
1015,0.3233256936073303,0.3827657699584961,0.99,0.93,0.00019842513149602464
1016,0.32332560420036316,0.38274818658828735,0.99,0.93,0.00019842513149602464
1017,0.32332560420036316,0.38278067111968994,0.99,0.93,0.00019842513149602464
1018,0.3233255445957184,0.3827875852584839,0.99,0.93,0.00019842513149602464
1019,0.3233255445957184,0.3827694356441498,0.99,0.93,0.00019842513149602464
1020,0.32332542538642883,0.38277947902679443,0.99,0.93,0.00019842513149602464
1021,0.32332539558410645,0.3827565908432007,0.99,0.93,0.00019842513149602464
1022,0.3233253061771393,0.3827698230743408,0.99,0.93,0.00019842513149602464
1023,0.3233253061771393,0.3827683925628662,0.99,0.93,0.00019842513149602464
1024,0.3233252465724945,0.3827761709690094,0.99,0.93,0.00019842513149602464
1025,0.32332515716552734,0.3827573359012604,0.99,0.93,0.00019842513149602464
1026,0.32332518696784973,0.38275063037872314,0.99,0.93,0.00019842513149602464
1027,0.32332512736320496,0.3827710747718811,0.99,0.93,0.00019842513149602464
1028,0.3233250677585602,0.38277575373649597,0.99,0.93,0.00019842513149602464
1029,0.3233250081539154,0.38277581334114075,0.99,0.93,0.00019842513149602464
1030,0.323324978351593,0.3827667534351349,0.99,0.93,0.00019842513149602464
1031,0.32332491874694824,0.3827519118785858,0.99,0.93,0.00019842513149602464
1032,0.32332485914230347,0.38277390599250793,0.99,0.93,0.00019842513149602464
1033,0.3233247995376587,0.38277462124824524,0.99,0.93,0.00019842513149602464
1034,0.3233247697353363,0.38275477290153503,0.99,0.93,0.00019842513149602464
1035,0.32332471013069153,0.3827776312828064,0.99,0.93,0.00019842513149602464
1036,0.32332471013069153,0.3827776312828064,0.99,0.93,0.00019842513149602464
1037,0.32332462072372437,0.38278263807296753,0.99,0.93,0.00019842513149602464
1038,0.3233245611190796,0.3827717900276184,0.99,0.93,0.00019842513149602464
1039,0.3233245015144348,0.3827490210533142,0.99,0.93,0.00019842513149602464
1040,0.3233245015144348,0.38276180624961853,0.99,0.93,0.00019842513149602464
1041,0.32332438230514526,0.3827672302722931,0.99,0.93,0.00019842513149602464
1042,0.32332438230514526,0.38273724913597107,0.99,0.93,0.00019842513149602464
1043,0.3233243525028229,0.3827817142009735,0.99,0.93,0.00019842513149602464
1044,0.3233242928981781,0.3827676475048065,0.99,0.93,0.00019842513149602464
1045,0.32332420349121094,0.38277819752693176,0.99,0.93,0.00019842513149602464
1046,0.32332420349121094,0.38277438282966614,0.99,0.93,0.00019842513149602464
1047,0.32332417368888855,0.38273510336875916,0.99,0.93,0.00019842513149602464
1048,0.3233240246772766,0.3827768564224243,0.99,0.93,0.00019842513149602464
1049,0.3233240246772766,0.38273289799690247,0.99,0.93,0.00019842513149602464
1050,0.323324054479599,0.38273918628692627,0.99,0.93,0.00019842513149602464
1051,0.32332390546798706,0.38275036215782166,0.99,0.93,0.00019842513149602464
1052,0.3233238458633423,0.3827303349971771,0.99,0.93,0.00019842513149602464
1053,0.3233238160610199,0.3827555775642395,0.99,0.93,0.00019842513149602464
1054,0.3233237564563751,0.3827497065067291,0.99,0.93,0.00019842513149602464
1055,0.32332369685173035,0.382732629776001,0.99,0.93,0.00019842513149602464
1056,0.32332366704940796,0.38274818658828735,0.99,0.93,0.00019842513149602464
1057,0.3233236074447632,0.38274505734443665,0.99,0.93,0.00019842513149602464
1058,0.3233235478401184,0.3827795684337616,0.99,0.93,0.00019842513149602464
1059,0.3233235478401184,0.3827713131904602,0.99,0.93,0.00019842513149602464
1060,0.323323518037796,0.3827425241470337,0.99,0.93,0.00019842513149602464
1061,0.32332342863082886,0.38274312019348145,0.99,0.93,0.00019842513149602464
1062,0.32332339882850647,0.3827553987503052,0.99,0.93,0.00019842513149602464
1063,0.3233233690261841,0.3827516436576843,0.99,0.93,0.00019842513149602464
1064,0.3233233392238617,0.38274383544921875,0.99,0.93,0.00019842513149602464
1065,0.3233232796192169,0.38274291157722473,0.99,0.93,0.00019842513149602464
1066,0.32332322001457214,0.3827306628227234,0.99,0.93,0.00019842513149602464
1067,0.3233231008052826,0.382750928401947,0.99,0.93,0.00019842513149602464
1068,0.3233231008052826,0.3827318549156189,0.99,0.93,0.00019842513149602464
1069,0.3233231008052826,0.38273802399635315,0.99,0.93,0.00019842513149602464
1070,0.32332301139831543,0.38274750113487244,0.99,0.93,0.00019842513149602464
1071,0.32332298159599304,0.38273948431015015,0.99,0.93,0.00019842513149602464
1072,0.32332298159599304,0.38276004791259766,0.99,0.93,0.00019842513149602464
1073,0.3233228921890259,0.38273268938064575,0.99,0.93,0.00019842513149602464
1074,0.3233228623867035,0.3827275335788727,0.99,0.93,0.00019842513149602464
1075,0.3233228027820587,0.3827873468399048,0.99,0.93,0.00019842513149602464
1076,0.32332274317741394,0.38275089859962463,0.99,0.93,0.00019842513149602464
1077,0.32332271337509155,0.38271892070770264,0.99,0.93,0.00019842513149602464
1078,0.32332271337509155,0.38271647691726685,0.99,0.93,0.00019842513149602464
1079,0.323322594165802,0.3827219307422638,0.99,0.93,0.00019842513149602464
1080,0.3233225345611572,0.38274574279785156,0.99,0.93,0.00019842513149602464
1081,0.32332247495651245,0.38273364305496216,0.99,0.93,0.00019842513149602464
1082,0.32332247495651245,0.3827365040779114,0.99,0.93,0.00019842513149602464
1083,0.3233224153518677,0.38274288177490234,0.99,0.93,0.00019842513149602464
1084,0.3233223259449005,0.3827434182167053,0.99,0.93,0.00019842513149602464
1085,0.3233222961425781,0.3827420771121979,0.99,0.93,0.00019842513149602464
1086,0.3233222961425781,0.3827466070652008,0.99,0.93,0.00019842513149602464
1087,0.32332226634025574,0.38271668553352356,0.99,0.93,0.00019842513149602464
1088,0.3233221769332886,0.38273173570632935,0.99,0.93,0.00019842513149602464
1089,0.3233221471309662,0.38273856043815613,0.99,0.93,0.00015749013123685888
1090,0.3233221173286438,0.38275596499443054,0.99,0.93,0.00015749013123685888
1091,0.32332202792167664,0.3827175199985504,0.99,0.93,0.00015749013123685888
1092,0.32332199811935425,0.38273197412490845,0.99,0.93,0.00015749013123685888
1093,0.32332202792167664,0.3827255368232727,0.99,0.93,0.00015749013123685888
1094,0.3233219385147095,0.38275039196014404,0.99,0.93,0.00015749013123685888
1095,0.3233218789100647,0.38273051381111145,0.99,0.93,0.00015749013123685888
1096,0.3233218789100647,0.3827348053455353,0.99,0.93,0.00015749013123685888
1097,0.3233218491077423,0.3827389180660248,0.99,0.93,0.00015749013123685888
1098,0.32332178950309753,0.3827480673789978,0.99,0.93,0.00015749013123685888
1099,0.32332172989845276,0.38276275992393494,0.99,0.93,0.00015749013123685888
1100,0.32332172989845276,0.3827262222766876,0.99,0.93,0.00015749013123685888
1101,0.32332170009613037,0.38274434208869934,0.99,0.93,0.00015749013123685888
1102,0.3233216106891632,0.38274312019348145,0.99,0.93,0.00015749013123685888
1103,0.3233216106891632,0.3827400207519531,0.99,0.93,0.00015749013123685888
1104,0.3233215808868408,0.38273197412490845,0.99,0.93,0.00015749013123685888
1105,0.3233215808868408,0.38272541761398315,0.99,0.93,0.00015749013123685888
1106,0.32332149147987366,0.382750004529953,0.99,0.93,0.00015749013123685888
1107,0.32332146167755127,0.3827050030231476,0.99,0.93,0.00015749013123685888
1108,0.32332146167755127,0.382705420255661,0.99,0.93,0.00015749013123685888
1109,0.3233213722705841,0.38271331787109375,0.99,0.93,0.00015749013123685888
1110,0.3233213722705841,0.3826998174190521,0.99,0.93,0.00015749013123685888
1111,0.3233213424682617,0.3827226161956787,0.99,0.93,0.00015749013123685888
1112,0.32332125306129456,0.38271647691726685,0.99,0.93,0.00015749013123685888
1113,0.32332122325897217,0.38269370794296265,0.99,0.93,0.00015749013123685888
1114,0.3233211636543274,0.3827143609523773,0.99,0.93,0.00015749013123685888
1115,0.3233211040496826,0.38272449374198914,0.99,0.93,0.00015749013123685888
1116,0.3233211040496826,0.38271549344062805,0.99,0.93,0.00015749013123685888
1117,0.32332107424736023,0.3827247619628906,0.99,0.93,0.00015749013123685888
1118,0.32332104444503784,0.3826944828033447,0.99,0.93,0.00015749013123685888
1119,0.32332098484039307,0.38270312547683716,0.99,0.93,0.00015749013123685888
1120,0.32332104444503784,0.3826974034309387,0.99,0.93,0.00015749013123685888
1121,0.3233209550380707,0.3827119469642639,0.99,0.93,0.00015749013123685888
1122,0.3233209252357483,0.3827267587184906,0.99,0.93,0.00015749013123685888
1123,0.3233208954334259,0.3827192187309265,0.99,0.93,0.00015749013123685888
1124,0.32332083582878113,0.3827168941497803,0.99,0.93,0.00015749013123685888
1125,0.32332077622413635,0.3827056884765625,0.99,0.93,0.00015749013123685888
1126,0.32332074642181396,0.3827020227909088,0.99,0.93,0.00015749013123685888
1127,0.32332074642181396,0.3827105462551117,0.99,0.93,0.00015749013123685888
1128,0.3233206570148468,0.38268524408340454,0.99,0.93,0.00015749013123685888
1129,0.3233206570148468,0.3827027380466461,0.99,0.93,0.00015749013123685888
1130,0.32332056760787964,0.3826855719089508,0.99,0.93,0.00015749013123685888
1131,0.32332056760787964,0.38272160291671753,0.99,0.93,0.00015749013123685888
1132,0.32332050800323486,0.3826857805252075,0.99,0.93,0.00015749013123685888
1133,0.32332050800323486,0.3827081024646759,0.99,0.93,0.00015749013123685888
1134,0.3233204782009125,0.38270241022109985,0.99,0.93,0.00015749013123685888
1135,0.3233204185962677,0.3826886713504791,0.99,0.93,0.00015749013123685888
1136,0.3233203887939453,0.38270679116249084,0.99,0.93,0.00015749013123685888
1137,0.3233203589916229,0.3826906979084015,0.99,0.93,0.00015749013123685888
1138,0.32332029938697815,0.3827149271965027,0.99,0.93,0.00015749013123685888
1139,0.32332026958465576,0.3826899826526642,0.99,0.93,0.00015749013123685888
1140,0.3233202397823334,0.3826867938041687,0.99,0.93,0.00015749013123685888
1141,0.3233201503753662,0.3826788663864136,0.99,0.93,0.00015749013123685888
1142,0.3233201503753662,0.3826780617237091,0.99,0.93,0.00015749013123685888
1143,0.3233201205730438,0.38268280029296875,0.99,0.93,0.00015749013123685888
1144,0.32332003116607666,0.3826548457145691,0.99,0.93,0.00015749013123685888
1145,0.32332003116607666,0.3826758861541748,0.99,0.93,0.00015749013123685888
1146,0.32332003116607666,0.382658988237381,0.99,0.93,0.00015749013123685888
1147,0.3233199715614319,0.38267871737480164,0.99,0.93,0.00015749013123685888
1148,0.3233198821544647,0.38267773389816284,0.99,0.93,0.00015749013123685888
1149,0.32331982254981995,0.38267090916633606,0.99,0.93,0.00015749013123685888
1150,0.32331982254981995,0.382671058177948,0.99,0.93,0.00015749013123685888
1151,0.32331985235214233,0.3826751410961151,0.99,0.93,0.00015749013123685888
1152,0.32331979274749756,0.3826860785484314,0.99,0.93,0.00015749013123685888
1153,0.32331979274749756,0.38264355063438416,0.99,0.93,0.00015749013123685888
1154,0.32331979274749756,0.38268038630485535,0.99,0.93,0.00015749013123685888
1155,0.3233197033405304,0.38266947865486145,0.99,0.93,0.00015749013123685888
1156,0.32331961393356323,0.38266655802726746,0.99,0.93,0.00015749013123685888
1157,0.32331958413124084,0.3826810121536255,0.99,0.93,0.00015749013123685888
1158,0.32331958413124084,0.38266777992248535,0.99,0.93,0.00015749013123685888
1159,0.32331955432891846,0.3826887011528015,0.99,0.93,0.00015749013123685888
1160,0.3233194649219513,0.3826743960380554,0.99,0.93,0.00015749013123685888
1161,0.3233194053173065,0.3826887905597687,0.99,0.93,0.00015749013123685888
1162,0.3233194053173065,0.38266846537590027,0.99,0.93,0.00015749013123685888
1163,0.3233194053173065,0.3826908469200134,0.99,0.93,0.00015749013123685888
1164,0.32331931591033936,0.3826848864555359,0.99,0.93,0.00015749013123685888
1165,0.32331928610801697,0.3827010989189148,0.99,0.93,0.00015749013123685888
1166,0.3233192563056946,0.38268783688545227,0.99,0.93,0.00015749013123685888
1167,0.3233191967010498,0.38266634941101074,0.99,0.93,0.00015749013123685888
1168,0.3233191668987274,0.3826847970485687,0.99,0.93,0.00015749013123685888
1169,0.32331913709640503,0.38267993927001953,0.99,0.93,0.00015749013123685888
1170,0.3233191668987274,0.38268429040908813,0.99,0.93,0.00015749013123685888
1171,0.32331907749176025,0.3826799690723419,0.99,0.93,0.00015749013123685888
1172,0.3233190178871155,0.3826811611652374,0.99,0.93,0.00015749013123685888
1173,0.3233189880847931,0.3826683759689331,0.99,0.93,0.00015749013123685888
1174,0.3233189880847931,0.38267067074775696,0.99,0.93,0.00015749013123685888
1175,0.3233189284801483,0.38267773389816284,0.99,0.93,0.00015749013123685888
1176,0.32331886887550354,0.38264575600624084,0.99,0.93,0.00015749013123685888
1177,0.3233188986778259,0.3826562464237213,0.99,0.93,0.00015749013123685888
1178,0.32331883907318115,0.3826465308666229,0.99,0.93,0.00015749013123685888
1179,0.323318749666214,0.3826543390750885,0.99,0.93,0.00015749013123685888
1180,0.323318749666214,0.3826770782470703,0.99,0.93,0.00015749013123685888
1181,0.323318749666214,0.3826759457588196,0.99,0.93,0.00015749013123685888
1182,0.3233186602592468,0.38266709446907043,0.99,0.93,0.00015749013123685888
1183,0.3233186602592468,0.3826439678668976,0.99,0.93,0.00015749013123685888
1184,0.3233186602592468,0.3826548755168915,0.99,0.93,0.00015749013123685888
1185,0.32331860065460205,0.38264206051826477,0.99,0.93,0.00015749013123685888
1186,0.3233185112476349,0.38264355063438416,0.99,0.93,0.00015749013123685888
1187,0.3233184814453125,0.3826325237751007,0.99,0.93,0.00015749013123685888
1188,0.3233184814453125,0.382627934217453,0.99,0.93,0.00015749013123685888
1189,0.3233184516429901,0.3826501965522766,0.99,0.93,0.00015749013123685888
1190,0.3233184516429901,0.3826259672641754,0.99,0.93,0.00012499999999999976
1191,0.32331836223602295,0.38262519240379333,0.99,0.93,0.00012499999999999976
1192,0.32331839203834534,0.3826596438884735,0.99,0.93,0.00012499999999999976
1193,0.32331836223602295,0.3826357126235962,0.99,0.93,0.00012499999999999976
1194,0.3233182430267334,0.38262349367141724,0.99,0.93,0.00012499999999999976
1195,0.3233183026313782,0.38263562321662903,0.99,0.93,0.00012499999999999976
1196,0.323318213224411,0.38263607025146484,0.99,0.93,0.00012499999999999976
1197,0.323318213224411,0.3826181888580322,0.99,0.93,0.00012499999999999976
1198,0.3233181834220886,0.3826228082180023,0.99,0.93,0.00012499999999999976
1199,0.32331812381744385,0.38264355063438416,0.99,0.93,0.00012499999999999976
1200,0.3233181834220886,0.3826179504394531,0.99,0.93,0.00012499999999999976
1201,0.32331812381744385,0.3826075494289398,0.99,0.93,0.00012499999999999976
1202,0.3233180642127991,0.38260960578918457,0.99,0.93,0.00012499999999999976
1203,0.32331809401512146,0.38264480233192444,0.99,0.93,0.00012499999999999976
1204,0.3233179748058319,0.3826380968093872,0.99,0.93,0.00012499999999999976
1205,0.3233179450035095,0.3826241195201874,0.99,0.93,0.00012499999999999976
1206,0.3233179450035095,0.3826288878917694,0.99,0.93,0.00012499999999999976
1207,0.32331788539886475,0.3826126158237457,0.99,0.93,0.00012499999999999976
1208,0.32331788539886475,0.38260596990585327,0.99,0.93,0.00012499999999999976
1209,0.3233177959918976,0.382619708776474,0.99,0.93,0.00012499999999999976
1210,0.3233177661895752,0.3826204538345337,0.99,0.93,0.00012499999999999976
1211,0.3233177959918976,0.38261547684669495,0.99,0.93,0.00012499999999999976
1212,0.3233177661895752,0.3825979232788086,0.99,0.93,0.00012499999999999976
1213,0.3233177661895752,0.3826177716255188,0.99,0.93,0.00012499999999999976
1214,0.32331767678260803,0.3826134502887726,0.99,0.93,0.00012499999999999976
1215,0.32331764698028564,0.38262099027633667,0.99,0.93,0.00012499999999999976
1216,0.32331761717796326,0.3826175034046173,0.99,0.93,0.00012499999999999976
1217,0.32331761717796326,0.3826112449169159,0.99,0.93,0.00012499999999999976
1218,0.3233175575733185,0.3826216757297516,0.99,0.93,0.00012499999999999976
1219,0.3233175575733185,0.38260775804519653,0.99,0.93,0.00012499999999999976
1220,0.3233175575733185,0.3826211094856262,0.99,0.93,0.00012499999999999976
1221,0.3233174979686737,0.3826284408569336,0.99,0.93,0.00012499999999999976
1222,0.3233174979686737,0.3826126754283905,0.99,0.93,0.00012499999999999976
1223,0.32331743836402893,0.3826139569282532,0.99,0.93,0.00012499999999999976
1224,0.3233174979686737,0.38261616230010986,0.99,0.93,0.00012499999999999976
1225,0.32331743836402893,0.3826318383216858,0.99,0.93,0.00012499999999999976
1226,0.32331740856170654,0.38262444734573364,0.99,0.93,0.00012499999999999976
1227,0.32331737875938416,0.38260185718536377,0.99,0.93,0.00012499999999999976
1228,0.32331734895706177,0.3826095461845398,0.99,0.93,0.00012499999999999976
1229,0.323317289352417,0.3826073706150055,0.99,0.93,0.00012499999999999976
1230,0.3233172595500946,0.3826116621494293,0.99,0.93,0.00012499999999999976
1231,0.3233172595500946,0.38259583711624146,0.99,0.93,0.00012499999999999976
1232,0.3233172297477722,0.3825967013835907,0.99,0.93,0.00012499999999999976
1233,0.32331717014312744,0.38260334730148315,0.99,0.93,0.00012499999999999976
1234,0.32331714034080505,0.3826194107532501,0.99,0.93,0.00012499999999999976
1235,0.32331714034080505,0.38261887431144714,0.99,0.93,0.00012499999999999976
1236,0.3233170807361603,0.38262516260147095,0.99,0.93,0.00012499999999999976
1237,0.3233170807361603,0.38259679079055786,0.99,0.93,0.00012499999999999976
1238,0.3233170807361603,0.3826124668121338,0.99,0.93,0.00012499999999999976
1239,0.3233169913291931,0.38261517882347107,0.99,0.93,0.00012499999999999976
1240,0.3233169615268707,0.38260334730148315,0.99,0.93,0.00012499999999999976
1241,0.3233169615268707,0.38259828090667725,0.99,0.93,0.00012499999999999976
1242,0.32331693172454834,0.3826195001602173,0.99,0.93,0.00012499999999999976
1243,0.32331687211990356,0.38260120153427124,0.99,0.93,0.00012499999999999976
1244,0.32331693172454834,0.38260695338249207,0.99,0.93,0.00012499999999999976
1245,0.3233168423175812,0.3826104402542114,0.99,0.93,0.00012499999999999976
1246,0.3233168125152588,0.3825919032096863,0.99,0.93,0.00012499999999999976
1247,0.323316752910614,0.3826035261154175,0.99,0.93,0.00012499999999999976
1248,0.323316752910614,0.38260531425476074,0.99,0.93,0.00012499999999999976
1249,0.3233167231082916,0.38261130452156067,0.99,0.93,0.00012499999999999976
1250,0.32331669330596924,0.3826259970664978,0.99,0.93,0.00012499999999999976
1251,0.32331669330596924,0.3825993835926056,0.99,0.93,0.00012499999999999976
1252,0.32331666350364685,0.38259464502334595,0.99,0.93,0.00012499999999999976
1253,0.3233166038990021,0.382594496011734,0.99,0.93,0.00012499999999999976
1254,0.3233166038990021,0.38259556889533997,0.99,0.93,0.00012499999999999976
1255,0.3233165740966797,0.3825993835926056,0.99,0.93,0.00012499999999999976
1256,0.3233165442943573,0.382596880197525,0.99,0.93,0.00012499999999999976
1257,0.3233165442943573,0.38261157274246216,0.99,0.93,0.00012499999999999976
1258,0.3233164846897125,0.38261523842811584,0.99,0.93,0.00012499999999999976
1259,0.32331642508506775,0.38260579109191895,0.99,0.93,0.00012499999999999976
1260,0.32331642508506775,0.3826083242893219,0.99,0.93,0.00012499999999999976
1261,0.3233163356781006,0.38261348009109497,0.99,0.93,0.00012499999999999976
1262,0.32331642508506775,0.3826087713241577,0.99,0.93,0.00012499999999999976
1263,0.3233163356781006,0.38260695338249207,0.99,0.93,0.00012499999999999976
1264,0.3233162760734558,0.38259750604629517,0.99,0.93,0.00012499999999999976
1265,0.3233162760734558,0.3826139569282532,0.99,0.93,0.00012499999999999976
1266,0.3233162760734558,0.3826020061969757,0.99,0.93,0.00012499999999999976
1267,0.32331621646881104,0.38259968161582947,0.99,0.93,0.00012499999999999976
1268,0.32331615686416626,0.3826066553592682,0.99,0.93,0.00012499999999999976
1269,0.32331615686416626,0.38261187076568604,0.99,0.93,0.00012499999999999976
1270,0.32331612706184387,0.38259851932525635,0.99,0.93,0.00012499999999999976
1271,0.3233160674571991,0.38259372115135193,0.99,0.93,0.00012499999999999976
1272,0.32331612706184387,0.38258862495422363,0.99,0.93,0.00012499999999999976
1273,0.3233160376548767,0.38257884979248047,0.99,0.93,0.00012499999999999976
1274,0.3233160376548767,0.3825705647468567,0.99,0.93,0.00012499999999999976
1275,0.32331597805023193,0.3825831711292267,0.99,0.93,0.00012499999999999976
1276,0.3233160078525543,0.38258010149002075,0.99,0.93,0.00012499999999999976
1277,0.32331597805023193,0.38259071111679077,0.99,0.93,0.00012499999999999976
1278,0.32331591844558716,0.3825972080230713,0.99,0.93,0.00012499999999999976
1279,0.32331588864326477,0.3825922906398773,0.99,0.93,0.00012499999999999976
1280,0.32331588864326477,0.38258349895477295,0.99,0.93,0.00012499999999999976
1281,0.3233157992362976,0.3825896978378296,0.99,0.93,0.00012499999999999976
1282,0.3233157992362976,0.38259032368659973,0.99,0.93,0.00012499999999999976
1283,0.3233157694339752,0.38259705901145935,0.99,0.93,0.00012499999999999976
1284,0.32331570982933044,0.38258880376815796,0.99,0.93,0.00012499999999999976
1285,0.32331570982933044,0.3825995624065399,0.99,0.93,0.00012499999999999976
1286,0.32331570982933044,0.38259682059288025,0.99,0.93,0.00012499999999999976
1287,0.32331565022468567,0.3826085329055786,0.99,0.93,0.00012499999999999976
1288,0.3233155906200409,0.38257816433906555,0.99,0.93,0.00012499999999999976
1289,0.3233155310153961,0.38258853554725647,0.99,0.93,0.00012499999999999976
1290,0.3233155906200409,0.382578045129776,0.99,0.93,0.00012499999999999976
1291,0.32331550121307373,0.3825807571411133,0.99,0.93,0.0001
1292,0.32331550121307373,0.38256481289863586,0.99,0.93,0.0001
1293,0.32331550121307373,0.3825730085372925,0.99,0.93,0.0001
1294,0.32331547141075134,0.3825739920139313,0.99,0.93,0.0001
1295,0.32331544160842896,0.38257405161857605,0.99,0.93,0.0001
1296,0.32331544160842896,0.3825646638870239,0.99,0.93,0.0001
1297,0.32331544160842896,0.38255584239959717,0.99,0.93,0.0001
1298,0.3233153522014618,0.3825577199459076,0.99,0.93,0.0001
1299,0.3233153522014618,0.38257208466529846,0.99,0.93,0.0001
1300,0.3233153522014618,0.38256409764289856,0.99,0.93,0.0001
1301,0.3233153223991394,0.3825724124908447,0.99,0.93,0.0001
1302,0.3233153223991394,0.3825831115245819,0.99,0.93,0.0001
1303,0.3233153223991394,0.3825875222682953,0.99,0.93,0.0001
1304,0.32331523299217224,0.3825719356536865,0.99,0.93,0.0001
1305,0.32331523299217224,0.38258302211761475,0.99,0.93,0.0001
1306,0.32331517338752747,0.38258635997772217,0.99,0.93,0.0001
1307,0.32331517338752747,0.38257378339767456,0.99,0.93,0.0001
1308,0.32331520318984985,0.3825698494911194,0.99,0.93,0.0001
1309,0.32331517338752747,0.38258007168769836,0.99,0.93,0.0001
1310,0.3233150839805603,0.38257652521133423,0.99,0.93,0.0001
1311,0.3233150839805603,0.3825853765010834,0.99,0.93,0.0001
1312,0.3233150839805603,0.38257071375846863,0.99,0.93,0.0001
1313,0.3233150243759155,0.3825867176055908,0.99,0.93,0.0001
1314,0.3233150541782379,0.3825678527355194,0.99,0.93,0.0001
1315,0.3233150243759155,0.3825768530368805,0.99,0.93,0.0001
1316,0.32331496477127075,0.3826054036617279,0.99,0.93,0.0001
1317,0.32331493496894836,0.3825734853744507,0.99,0.93,0.0001
1318,0.323314905166626,0.3825696110725403,0.99,0.93,0.0001
1319,0.32331493496894836,0.38256579637527466,0.99,0.93,0.0001
1320,0.323314905166626,0.38255566358566284,0.99,0.93,0.0001
1321,0.3233148157596588,0.3825627565383911,0.99,0.93,0.0001
1322,0.3233148455619812,0.38258060812950134,0.99,0.93,0.0001
1323,0.3233148157596588,0.38255614042282104,0.99,0.93,0.0001
1324,0.3233148157596588,0.3825767934322357,0.99,0.93,0.0001
1325,0.32331475615501404,0.3825612962245941,0.99,0.93,0.0001
1326,0.32331469655036926,0.3825743794441223,0.99,0.93,0.0001
1327,0.32331475615501404,0.38257625699043274,0.99,0.93,0.0001
1328,0.32331475615501404,0.3825831711292267,0.99,0.93,0.0001
1329,0.3233146667480469,0.38257017731666565,0.99,0.93,0.0001
1330,0.32331469655036926,0.38258057832717896,0.99,0.93,0.0001
1331,0.32331469655036926,0.38258659839630127,0.99,0.93,0.0001
1332,0.3233145773410797,0.38257643580436707,0.99,0.93,0.0001
1333,0.3233146369457245,0.382578581571579,0.99,0.93,0.0001
1334,0.3233145773410797,0.38255757093429565,0.99,0.93,0.0001
1335,0.3233145773410797,0.3825690746307373,0.99,0.93,0.0001
1336,0.32331451773643494,0.38257354497909546,0.99,0.93,0.0001
1337,0.32331451773643494,0.38256949186325073,0.99,0.93,0.0001
1338,0.32331448793411255,0.38258010149002075,0.99,0.93,0.0001
1339,0.3233144283294678,0.3825669586658478,0.99,0.93,0.0001
1340,0.3233144283294678,0.38256797194480896,0.99,0.93,0.0001
1341,0.3233144283294678,0.3825836479663849,0.99,0.93,0.0001
1342,0.323314368724823,0.38255763053894043,0.99,0.93,0.0001
1343,0.3233143985271454,0.3825675845146179,0.99,0.93,0.0001
1344,0.323314368724823,0.3825543224811554,0.99,0.93,0.0001
1345,0.3233143091201782,0.3825494050979614,0.99,0.93,0.0001
1346,0.3233143091201782,0.38257643580436707,0.99,0.93,0.0001
1347,0.32331427931785583,0.3825721740722656,0.99,0.93,0.0001
1348,0.32331424951553345,0.38255950808525085,0.99,0.93,0.0001
1349,0.32331424951553345,0.3825926184654236,0.99,0.93,0.0001
1350,0.32331421971321106,0.38257861137390137,0.99,0.93,0.0001
1351,0.32331424951553345,0.3825783133506775,0.99,0.93,0.0001
1352,0.3233141601085663,0.3825739920139313,0.99,0.93,0.0001
1353,0.3233141601085663,0.3825758695602417,0.99,0.93,0.0001
1354,0.3233141303062439,0.3825792372226715,0.99,0.93,0.0001
1355,0.3233141005039215,0.3825798034667969,0.99,0.93,0.0001
1356,0.3233141005039215,0.38254886865615845,0.99,0.93,0.0001
1357,0.3233140707015991,0.3825620412826538,0.99,0.93,0.0001
1358,0.3233141005039215,0.3825419545173645,0.99,0.93,0.0001
1359,0.32331401109695435,0.3825628161430359,0.99,0.93,0.0001
1360,0.32331401109695435,0.3825550377368927,0.99,0.93,0.0001
1361,0.3233140707015991,0.38254764676094055,0.99,0.93,0.0001
1362,0.32331398129463196,0.38256314396858215,0.99,0.93,0.0001
1363,0.3233138918876648,0.3825373947620392,0.99,0.93,0.0001
1364,0.32331395149230957,0.38254818320274353,0.99,0.93,0.0001
1365,0.3233138918876648,0.38256600499153137,0.99,0.93,0.0001
1366,0.3233138620853424,0.3825652599334717,0.99,0.93,0.0001
1367,0.3233138918876648,0.38254398107528687,0.99,0.93,0.0001
1368,0.3233138620853424,0.38255175948143005,0.99,0.93,0.0001
1369,0.32331380248069763,0.38255244493484497,0.99,0.93,0.0001
1370,0.32331380248069763,0.38254672288894653,0.99,0.93,0.0001
1371,0.32331374287605286,0.38256290555000305,0.99,0.93,0.0001
1372,0.32331374287605286,0.38256484270095825,0.99,0.93,0.0001
1373,0.32331371307373047,0.38254353404045105,0.99,0.93,0.0001
1374,0.32331371307373047,0.3825441300868988,0.99,0.93,0.0001
1375,0.3233136236667633,0.38256150484085083,0.99,0.93,0.0001
1376,0.3233136832714081,0.38255631923675537,0.99,0.93,0.0001
1377,0.3233136832714081,0.3825441300868988,0.99,0.93,0.0001
1378,0.3233136236667633,0.3825502395629883,0.99,0.93,0.0001
1379,0.3233135938644409,0.3825593888759613,0.99,0.93,0.0001
1380,0.32331356406211853,0.3825365900993347,0.99,0.93,0.0001
1381,0.32331356406211853,0.3825584650039673,0.99,0.93,0.0001
1382,0.32331347465515137,0.3825497031211853,0.99,0.93,0.0001
1383,0.32331347465515137,0.3825410008430481,0.99,0.93,0.0001
1384,0.323313444852829,0.3825518488883972,0.99,0.93,0.0001
1385,0.323313444852829,0.3825421631336212,0.99,0.93,0.0001
1386,0.323313444852829,0.38253486156463623,0.99,0.93,0.0001
1387,0.3233134150505066,0.38253337144851685,0.99,0.93,0.0001
1388,0.3233134150505066,0.3825590908527374,0.99,0.93,0.0001
1389,0.3233133554458618,0.3825262486934662,0.99,0.93,0.0001
1390,0.3233133554458618,0.38253533840179443,0.99,0.93,0.0001
1391,0.32331332564353943,0.38253843784332275,0.99,0.93,0.0001
1392,0.32331329584121704,0.38254204392433167,0.99,0.93,0.0001
1393,0.32331329584121704,0.3825327754020691,0.99,0.93,0.0001
1394,0.3233132064342499,0.3825382888317108,0.99,0.93,0.0001
1395,0.32331326603889465,0.38254305720329285,0.99,0.93,0.0001
1396,0.3233132064342499,0.38254210352897644,0.99,0.93,0.0001
1397,0.3233131766319275,0.3825511038303375,0.99,0.93,0.0001
1398,0.3233131468296051,0.3825511038303375,0.99,0.93,0.0001
1399,0.3233131468296051,0.3825422525405884,0.99,0.93,0.0001
1400,0.32331305742263794,0.38253384828567505,0.99,0.93,0.0001
1401,0.3233131170272827,0.38254645466804504,0.99,0.93,0.0001
1402,0.32331305742263794,0.3825560510158539,0.99,0.93,0.0001
1403,0.32331302762031555,0.38254833221435547,0.99,0.93,0.0001
1404,0.32331299781799316,0.3825467824935913,0.99,0.93,0.0001
1405,0.32331302762031555,0.3825509250164032,0.99,0.93,0.0001
1406,0.32331299781799316,0.3825405538082123,0.99,0.93,0.0001
1407,0.32331299781799316,0.3825458884239197,0.99,0.93,0.0001
1408,0.3233129382133484,0.3825393319129944,0.99,0.93,0.0001
1409,0.323312908411026,0.3825491666793823,0.99,0.93,0.0001
1410,0.3233128786087036,0.38256943225860596,0.99,0.93,0.0001
1411,0.3233128786087036,0.3825501501560211,0.99,0.93,0.0001
1412,0.3233128786087036,0.3825288414955139,0.99,0.93,0.0001
1413,0.3233128488063812,0.3825409710407257,0.99,0.93,0.0001
1414,0.3233128488063812,0.38254666328430176,0.99,0.93,0.0001
1415,0.32331278920173645,0.3825461268424988,0.99,0.93,0.0001
1416,0.32331275939941406,0.3825427293777466,0.99,0.93,0.0001
1417,0.3233127295970917,0.38254326581954956,0.99,0.93,0.0001
1418,0.3233127295970917,0.3825410008430481,0.99,0.93,0.0001
1419,0.3233127295970917,0.3825351595878601,0.99,0.93,0.0001
1420,0.3233127295970917,0.382526159286499,0.99,0.93,0.0001
1421,0.3233126103878021,0.38252580165863037,0.99,0.93,0.0001
1422,0.3233126103878021,0.3825252652168274,0.99,0.93,0.0001
1423,0.3233126401901245,0.3825143873691559,0.99,0.93,0.0001
1424,0.3233126103878021,0.38254138827323914,0.99,0.93,0.0001
1425,0.32331252098083496,0.3824986219406128,0.99,0.93,0.0001
1426,0.32331258058547974,0.3825424611568451,0.99,0.93,0.0001
1427,0.3233124613761902,0.382535845041275,0.99,0.93,0.0001
1428,0.3233124911785126,0.3825291693210602,0.99,0.93,0.0001
1429,0.32331252098083496,0.3825172185897827,0.99,0.93,0.0001
1430,0.3233124911785126,0.382538378238678,0.99,0.93,0.0001
1431,0.3233124613761902,0.3825145959854126,0.99,0.93,0.0001
1432,0.323312371969223,0.38251087069511414,0.99,0.93,0.0001
1433,0.3233124017715454,0.3825095295906067,0.99,0.93,0.0001
1434,0.323312371969223,0.3825245797634125,0.99,0.93,0.0001
1435,0.3233124017715454,0.38253113627433777,0.99,0.93,0.0001
1436,0.32331231236457825,0.382516086101532,0.99,0.93,0.0001
1437,0.32331225275993347,0.38253650069236755,0.99,0.93,0.0001
1438,0.32331231236457825,0.38251546025276184,0.99,0.93,0.0001
1439,0.3233122229576111,0.38252177834510803,0.99,0.93,0.0001
1440,0.3233122229576111,0.3825139105319977,0.99,0.93,0.0001
1441,0.3233121633529663,0.3825008273124695,0.99,0.93,0.0001
1442,0.3233121931552887,0.3825063407421112,0.99,0.93,0.0001
1443,0.3233121633529663,0.38252460956573486,0.99,0.93,0.0001
1444,0.3233121931552887,0.3825235366821289,0.99,0.93,0.0001
1445,0.32331207394599915,0.38252925872802734,0.99,0.93,0.0001
1446,0.32331210374832153,0.38251736760139465,0.99,0.93,0.0001
1447,0.32331207394599915,0.3825245797634125,0.99,0.93,0.0001
1448,0.32331207394599915,0.38252678513526917,0.99,0.93,0.0001
1449,0.32331204414367676,0.38255298137664795,0.99,0.93,0.0001
1450,0.323311984539032,0.3825286030769348,0.99,0.93,0.0001
1451,0.323311984539032,0.38254570960998535,0.99,0.93,0.0001
1452,0.3233119249343872,0.38252487778663635,0.99,0.93,0.0001
1453,0.3233119547367096,0.38251498341560364,0.99,0.93,0.0001
1454,0.3233119249343872,0.38251793384552,0.99,0.93,0.0001
1455,0.323311984539032,0.38253483176231384,0.99,0.93,0.0001
1456,0.32331183552742004,0.38251572847366333,0.99,0.93,0.0001
1457,0.3233118951320648,0.3825356364250183,0.99,0.93,0.0001
1458,0.32331183552742004,0.38252440094947815,0.99,0.93,0.0001
1459,0.3233118951320648,0.38251492381095886,0.99,0.93,0.0001
1460,0.32331180572509766,0.38251155614852905,0.99,0.93,0.0001
1461,0.32331183552742004,0.3825220465660095,0.99,0.93,0.0001
1462,0.32331180572509766,0.3824893534183502,0.99,0.93,0.0001
1463,0.32331177592277527,0.38247931003570557,0.99,0.93,0.0001
1464,0.3233117163181305,0.3824864625930786,0.99,0.93,0.0001
1465,0.3233116865158081,0.3825010359287262,0.99,0.93,0.0001
1466,0.3233116865158081,0.3825024366378784,0.99,0.93,0.0001
1467,0.3233117163181305,0.3824954330921173,0.99,0.93,0.0001
1468,0.3233116865158081,0.3824854791164398,0.99,0.93,0.0001
1469,0.32331162691116333,0.3824991285800934,0.99,0.93,0.0001
1470,0.32331162691116333,0.38248637318611145,0.99,0.93,0.0001
1471,0.32331156730651855,0.38248759508132935,0.99,0.93,0.0001
1472,0.32331156730651855,0.3824976980686188,0.99,0.93,0.0001
1473,0.32331153750419617,0.3824927806854248,0.99,0.93,0.0001
1474,0.32331156730651855,0.38248738646507263,0.99,0.93,0.0001
1475,0.32331153750419617,0.3824812173843384,0.99,0.93,0.0001
1476,0.32331153750419617,0.3824698328971863,0.99,0.93,0.0001
1477,0.323311448097229,0.3824590742588043,0.99,0.93,0.0001
1478,0.323311448097229,0.38248759508132935,0.99,0.93,0.0001
1479,0.32331138849258423,0.38252055644989014,0.99,0.93,0.0001
1480,0.32331138849258423,0.38250598311424255,0.99,0.93,0.0001
1481,0.32331138849258423,0.38250142335891724,0.99,0.93,0.0001
1482,0.32331135869026184,0.38249343633651733,0.99,0.93,0.0001
1483,0.32331135869026184,0.38248810172080994,0.99,0.93,0.0001
1484,0.32331129908561707,0.38248467445373535,0.99,0.93,0.0001
1485,0.3233112692832947,0.38250666856765747,0.99,0.93,0.0001
1486,0.3233112692832947,0.38249140977859497,0.99,0.93,0.0001
1487,0.3233112692832947,0.38249287009239197,0.99,0.93,0.0001
1488,0.32331129908561707,0.38248130679130554,0.99,0.93,0.0001
1489,0.3233112096786499,0.38249775767326355,0.99,0.93,0.0001
1490,0.3233112394809723,0.3825022876262665,0.99,0.93,0.0001
1491,0.3233112096786499,0.3824930191040039,0.99,0.93,0.0001
1492,0.3233111500740051,0.3824674189090729,0.99,0.93,0.0001
1493,0.32331112027168274,0.38250842690467834,0.99,0.93,0.0001
1494,0.32331109046936035,0.3824903964996338,0.99,0.93,0.0001
1495,0.32331112027168274,0.3824951946735382,0.99,0.93,0.0001
1496,0.3233110308647156,0.38251104950904846,0.99,0.93,0.0001
1497,0.3233110308647156,0.38249891996383667,0.99,0.93,0.0001
1498,0.3233110010623932,0.3824874758720398,0.99,0.93,0.0001
1499,0.3233110308647156,0.382492333650589,0.99,0.93,0.0001
1500,0.3233109712600708,0.38249969482421875,0.99,0.93,0.0001
1501,0.3233109414577484,0.3824848234653473,0.99,0.93,0.0001
1502,0.3233109414577484,0.3825061321258545,0.99,0.93,0.0001
1503,0.3233109414577484,0.38250237703323364,0.99,0.93,0.0001
1504,0.3233109414577484,0.38248685002326965,0.99,0.93,0.0001
1505,0.32331085205078125,0.38246333599090576,0.99,0.93,0.0001
1506,0.32331082224845886,0.3824807107448578,0.99,0.93,0.0001
1507,0.32331085205078125,0.382493793964386,0.99,0.93,0.0001
1508,0.32331082224845886,0.3824976980686188,0.99,0.93,0.0001
1509,0.3233107626438141,0.38247185945510864,0.99,0.93,0.0001
1510,0.3233107328414917,0.3824743628501892,0.99,0.93,0.0001
1511,0.3233107328414917,0.38248172402381897,0.99,0.93,0.0001
1512,0.3233107030391693,0.3824978768825531,0.99,0.93,0.0001
1513,0.32331061363220215,0.3824513554573059,0.99,0.93,0.0001
1514,0.3233106732368469,0.3824739158153534,0.99,0.93,0.0001
1515,0.32331061363220215,0.382487416267395,0.99,0.93,0.0001
1516,0.32331061363220215,0.3824678063392639,0.99,0.93,0.0001
1517,0.32331058382987976,0.3824692964553833,0.99,0.93,0.0001
1518,0.3233105540275574,0.382478266954422,0.99,0.93,0.0001
1519,0.3233105540275574,0.38248011469841003,0.99,0.93,0.0001
1520,0.3233104944229126,0.38247567415237427,0.99,0.93,0.0001
1521,0.3233104944229126,0.38246771693229675,0.99,0.93,0.0001
1522,0.3233104944229126,0.38246262073516846,0.99,0.93,0.0001
1523,0.3233104646205902,0.382497102022171,0.99,0.93,0.0001
1524,0.3233104944229126,0.3824702799320221,0.99,0.93,0.0001
1525,0.32331040501594543,0.3824644088745117,0.99,0.93,0.0001
1526,0.32331034541130066,0.3824852705001831,0.99,0.93,0.0001
1527,0.32331040501594543,0.38246700167655945,0.99,0.93,0.0001
1528,0.32331034541130066,0.3824712336063385,0.99,0.93,0.0001
1529,0.32331031560897827,0.3824635446071625,0.99,0.93,0.0001
1530,0.32331031560897827,0.3824672996997833,0.99,0.93,0.0001
1531,0.3233102858066559,0.38246431946754456,0.99,0.93,0.0001
1532,0.3233102560043335,0.38248690962791443,0.99,0.93,0.0001
1533,0.3233102858066559,0.38247063755989075,0.99,0.93,0.0001
1534,0.3233102560043335,0.3824602961540222,0.99,0.93,0.0001
1535,0.32331016659736633,0.38247379660606384,0.99,0.93,0.0001
1536,0.3233102560043335,0.38245975971221924,0.99,0.93,0.0001
1537,0.32331016659736633,0.38249263167381287,0.99,0.93,0.0001
1538,0.32331013679504395,0.38244423270225525,0.99,0.93,0.0001
1539,0.32331013679504395,0.3824447691440582,0.99,0.93,0.0001
1540,0.32331007719039917,0.3824627697467804,0.99,0.93,0.0001
1541,0.32331016659736633,0.38244354724884033,0.99,0.93,0.0001
1542,0.3233100473880768,0.3824508786201477,0.99,0.93,0.0001
1543,0.3233100473880768,0.3824547231197357,0.99,0.93,0.0001
1544,0.323309987783432,0.38245540857315063,0.99,0.93,0.0001
1545,0.3233100175857544,0.38245388865470886,0.99,0.93,0.0001
1546,0.323309987783432,0.3824601471424103,0.99,0.93,0.0001
1547,0.323309987783432,0.38244953751564026,0.99,0.93,0.0001
1548,0.323309987783432,0.3824593424797058,0.99,0.93,0.0001
1549,0.32330989837646484,0.3824692964553833,0.99,0.93,0.0001
1550,0.32330992817878723,0.3824741244316101,0.99,0.93,0.0001
1551,0.32330986857414246,0.3824646770954132,0.99,0.93,0.0001
1552,0.3233098089694977,0.38244643807411194,0.99,0.93,0.0001
1553,0.3233098089694977,0.3824585974216461,0.99,0.93,0.0001
1554,0.3233097791671753,0.38245689868927,0.99,0.93,0.0001
1555,0.3233097791671753,0.38244855403900146,0.99,0.93,0.0001
1556,0.3233097791671753,0.38245680928230286,0.99,0.93,0.0001
1557,0.3233097791671753,0.38243812322616577,0.99,0.93,0.0001
1558,0.3233097195625305,0.3824373185634613,0.99,0.93,0.0001
1559,0.3233097493648529,0.3824584484100342,0.99,0.93,0.0001
1560,0.3233097195625305,0.382446825504303,0.99,0.93,0.0001
1561,0.32330965995788574,0.38244593143463135,0.99,0.93,0.0001
1562,0.32330965995788574,0.3824276626110077,0.99,0.93,0.0001
1563,0.32330963015556335,0.3824348449707031,0.99,0.93,0.0001
1564,0.32330960035324097,0.3824318051338196,0.99,0.93,0.0001
1565,0.32330960035324097,0.3824286162853241,0.99,0.93,0.0001
1566,0.3233095407485962,0.3824322819709778,0.99,0.93,0.0001
1567,0.3233095109462738,0.3824290931224823,0.99,0.93,0.0001
1568,0.3233094811439514,0.38242146372795105,0.99,0.93,0.0001
1569,0.32330945134162903,0.38241907954216003,0.99,0.93,0.0001
1570,0.3233094811439514,0.3824266791343689,0.99,0.93,0.0001
1571,0.3233095109462738,0.3824394941329956,0.99,0.93,0.0001
1572,0.32330945134162903,0.3824149966239929,0.99,0.93,0.0001
1573,0.32330939173698425,0.38242876529693604,0.99,0.93,0.0001
1574,0.32330939173698425,0.38241511583328247,0.99,0.93,0.0001
1575,0.32330939173698425,0.3824275732040405,0.99,0.93,0.0001
1576,0.32330936193466187,0.3824203610420227,0.99,0.93,0.0001
1577,0.3233093321323395,0.3824325501918793,0.99,0.93,0.0001
1578,0.3233093023300171,0.3824214041233063,0.99,0.93,0.0001
1579,0.3233093321323395,0.3824141025543213,0.99,0.93,0.0001
1580,0.3233092427253723,0.3824416995048523,0.99,0.93,0.0001
1581,0.3233092129230499,0.38242200016975403,0.99,0.93,0.0001
1582,0.3233092129230499,0.38240355253219604,0.99,0.93,0.0001
1583,0.3233092427253723,0.3824279010295868,0.99,0.93,0.0001
1584,0.3233092129230499,0.3824051320552826,0.99,0.93,0.0001
1585,0.3233092129230499,0.3824109733104706,0.99,0.93,0.0001
1586,0.32330912351608276,0.38241007924079895,0.99,0.93,0.0001
1587,0.3233090937137604,0.3824085593223572,0.99,0.93,0.0001
1588,0.323309063911438,0.382394403219223,0.99,0.93,0.0001
1589,0.3233090937137604,0.3823813498020172,0.99,0.93,0.0001
1590,0.3233090341091156,0.38240110874176025,0.99,0.93,0.0001
1591,0.3233090341091156,0.3824213147163391,0.99,0.93,0.0001
1592,0.3233089745044708,0.38241711258888245,0.99,0.93,0.0001
1593,0.3233089745044708,0.38242530822753906,0.99,0.93,0.0001
1594,0.32330894470214844,0.3824162185192108,0.99,0.93,0.0001
1595,0.3233089745044708,0.38240185379981995,0.99,0.93,0.0001
1596,0.32330891489982605,0.3824043273925781,0.99,0.93,0.0001
1597,0.32330891489982605,0.3824070394039154,0.99,0.93,0.0001
1598,0.3233088552951813,0.38241565227508545,0.99,0.93,0.0001
1599,0.3233088552951813,0.38239941000938416,0.99,0.93,0.0001
1600,0.3233088552951813,0.38241255283355713,0.99,0.93,0.0001
1601,0.3233087956905365,0.3823908269405365,0.99,0.93,0.0001
1602,0.3233087956905365,0.3824160099029541,0.99,0.93,0.0001
1603,0.32330870628356934,0.3823869228363037,0.99,0.93,0.0001
1604,0.32330870628356934,0.3823812007904053,0.99,0.93,0.0001
1605,0.32330870628356934,0.38240090012550354,0.99,0.93,0.0001
1606,0.3233087658882141,0.3823980689048767,0.99,0.93,0.0001
1607,0.32330870628356934,0.38239383697509766,0.99,0.93,0.0001
1608,0.32330867648124695,0.38239192962646484,0.99,0.93,0.0001
1609,0.32330864667892456,0.38241374492645264,0.99,0.93,0.0001
1610,0.32330864667892456,0.38240233063697815,0.99,0.93,0.0001
1611,0.32330864667892456,0.3824102282524109,0.99,0.93,0.0001
1612,0.3233085870742798,0.38241878151893616,0.99,0.93,0.0001
1613,0.3233085870742798,0.3824058175086975,0.99,0.93,0.0001
1614,0.323308527469635,0.3824126422405243,0.99,0.93,0.0001
1615,0.3233084976673126,0.3824186325073242,0.99,0.93,0.0001
1616,0.3233085572719574,0.3823980987071991,0.99,0.93,0.0001
1617,0.3233084976673126,0.3824024200439453,0.99,0.93,0.0001
1618,0.3233084976673126,0.38239943981170654,0.99,0.93,0.0001
1619,0.32330840826034546,0.3823896646499634,0.99,0.93,0.0001
1620,0.32330843806266785,0.38240545988082886,0.99,0.93,0.0001
1621,0.32330840826034546,0.3823937177658081,0.99,0.93,0.0001
1622,0.32330837845802307,0.38239002227783203,0.99,0.93,0.0001
1623,0.32330837845802307,0.3824041783809662,0.99,0.93,0.0001
1624,0.3233082890510559,0.3823828399181366,0.99,0.93,0.0001
1625,0.3233082890510559,0.38238847255706787,0.99,0.93,0.0001
1626,0.3233082592487335,0.3824022710323334,0.99,0.93,0.0001
1627,0.3233082890510559,0.38238725066185,0.99,0.93,0.0001
1628,0.3233082592487335,0.38238751888275146,0.99,0.93,0.0001
1629,0.32330822944641113,0.38238877058029175,0.99,0.93,0.0001
1630,0.32330816984176636,0.3823724389076233,0.99,0.93,0.0001
1631,0.32330816984176636,0.3824068009853363,0.99,0.93,0.0001
1632,0.32330816984176636,0.38238197565078735,0.99,0.93,0.0001
1633,0.32330814003944397,0.3823837339878082,0.99,0.93,0.0001
1634,0.32330816984176636,0.38238829374313354,0.99,0.93,0.0001
1635,0.3233080804347992,0.3824065327644348,0.99,0.93,0.0001
1636,0.3233081102371216,0.382412314414978,0.99,0.93,0.0001
1637,0.3233081102371216,0.382394015789032,0.99,0.93,0.0001
1638,0.3233080804347992,0.3823881447315216,0.99,0.93,0.0001
1639,0.3233080208301544,0.38239383697509766,0.99,0.93,0.0001
1640,0.32330796122550964,0.38239890336990356,0.99,0.93,0.0001
1641,0.3233080208301544,0.3823844790458679,0.99,0.93,0.0001
1642,0.32330796122550964,0.38237202167510986,0.99,0.93,0.0001
1643,0.32330799102783203,0.38240355253219604,0.99,0.93,0.0001
1644,0.32330790162086487,0.3823927938938141,0.99,0.93,0.0001
1645,0.32330796122550964,0.382373571395874,0.99,0.93,0.0001
1646,0.3233078718185425,0.3823630213737488,0.99,0.93,0.0001
1647,0.32330775260925293,0.3823718726634979,0.99,0.93,0.0001
1648,0.3233078718185425,0.38235968351364136,0.99,0.93,0.0001
1649,0.32330775260925293,0.3823608160018921,0.99,0.93,0.0001
1650,0.32330775260925293,0.3823718726634979,0.99,0.93,0.0001
1651,0.3233078122138977,0.382356196641922,0.99,0.93,0.0001
1652,0.32330772280693054,0.38238537311553955,0.99,0.93,0.0001
1653,0.32330775260925293,0.38238075375556946,0.99,0.93,0.0001
1654,0.32330769300460815,0.382363885641098,0.99,0.93,0.0001
1655,0.32330769300460815,0.3823607265949249,0.99,0.93,0.0001
1656,0.323307603597641,0.38235247135162354,0.99,0.93,0.0001
1657,0.323307603597641,0.38234665989875793,0.99,0.93,0.0001
1658,0.3233076333999634,0.3823561370372772,0.99,0.93,0.0001
1659,0.3233075737953186,0.38234052062034607,0.99,0.93,0.0001
1660,0.3233075737953186,0.38232421875,0.99,0.93,0.0001
1661,0.3233075439929962,0.382355660200119,0.99,0.93,0.0001
1662,0.3233075439929962,0.38232600688934326,0.99,0.93,0.0001
1663,0.3233075439929962,0.38233229517936707,0.99,0.93,0.0001
1664,0.32330748438835144,0.38232776522636414,0.99,0.93,0.0001
1665,0.32330748438835144,0.3823227286338806,0.99,0.93,0.0001
1666,0.32330745458602905,0.38234108686447144,0.99,0.93,0.0001
1667,0.32330742478370667,0.3823409378528595,0.99,0.93,0.0001
1668,0.32330742478370667,0.3823291063308716,0.99,0.93,0.0001
1669,0.32330742478370667,0.38232555985450745,0.99,0.93,0.0001
1670,0.32330742478370667,0.3823232352733612,0.99,0.93,0.0001
1671,0.3233073353767395,0.3823409974575043,0.99,0.93,0.0001
1672,0.3233073353767395,0.38234764337539673,0.99,0.93,0.0001
1673,0.3233073055744171,0.3823281526565552,0.99,0.93,0.0001
1674,0.3233073055744171,0.3823341429233551,0.99,0.93,0.0001
1675,0.3233073055744171,0.3823237717151642,0.99,0.93,0.0001
1676,0.3233073055744171,0.382325679063797,0.99,0.93,0.0001
1677,0.3233072757720947,0.38233739137649536,0.99,0.93,0.0001
1678,0.32330721616744995,0.3823450207710266,0.99,0.93,0.0001
1679,0.32330718636512756,0.3823442757129669,0.99,0.93,0.0001
1680,0.32330718636512756,0.3823387622833252,0.99,0.93,0.0001
1681,0.32330718636512756,0.3823462724685669,0.99,0.93,0.0001
1682,0.3233071565628052,0.3823852837085724,0.99,0.93,0.0001
1683,0.3233071267604828,0.38234803080558777,0.99,0.93,0.0001
1684,0.3233071267604828,0.38234126567840576,0.99,0.93,0.0001
1685,0.3233070373535156,0.3823322057723999,0.99,0.93,0.0001
1686,0.3233071267604828,0.3823501467704773,0.99,0.93,0.0001
1687,0.3233070373535156,0.38231781125068665,0.99,0.93,0.0001
1688,0.3233070373535156,0.38234373927116394,0.99,0.93,0.0001
1689,0.3233070373535156,0.38234278559684753,0.99,0.93,0.0001
1690,0.32330700755119324,0.38233521580696106,0.99,0.93,0.0001
1691,0.32330700755119324,0.38234207034111023,0.99,0.93,0.0001
1692,0.32330694794654846,0.3823096752166748,0.99,0.93,0.0001
1693,0.3233069181442261,0.3823164403438568,0.99,0.93,0.0001
1694,0.32330694794654846,0.3823149800300598,0.99,0.93,0.0001
1695,0.3233069181442261,0.38231346011161804,0.99,0.93,0.0001
1696,0.3233069181442261,0.38230544328689575,0.99,0.93,0.0001
1697,0.3233068883419037,0.38232970237731934,0.99,0.93,0.0001
1698,0.3233068883419037,0.38231009244918823,0.99,0.93,0.0001
1699,0.3233068585395813,0.38232582807540894,0.99,0.93,0.0001
1700,0.3233067989349365,0.3823107182979584,0.99,0.93,0.0001
1701,0.32330676913261414,0.38230350613594055,0.99,0.93,0.0001
1702,0.3233067989349365,0.3823319673538208,0.99,0.93,0.0001
1703,0.32330676913261414,0.38232338428497314,0.99,0.93,0.0001
1704,0.32330673933029175,0.3823140859603882,0.99,0.93,0.0001
1705,0.32330673933029175,0.38231930136680603,0.99,0.93,0.0001
1706,0.32330673933029175,0.38232147693634033,0.99,0.93,0.0001
1707,0.3233066499233246,0.382323294878006,0.99,0.93,0.0001
1708,0.3233066499233246,0.38233718276023865,0.99,0.93,0.0001
1709,0.3233066201210022,0.3823181390762329,0.99,0.93,0.0001
1710,0.3233065903186798,0.3823193609714508,0.99,0.93,0.0001
1711,0.3233065903186798,0.3822959065437317,0.99,0.93,0.0001
1712,0.32330653071403503,0.3823133707046509,0.99,0.93,0.0001
1713,0.32330650091171265,0.3823375403881073,0.99,0.93,0.0001
1714,0.32330650091171265,0.382303923368454,0.99,0.93,0.0001
1715,0.32330653071403503,0.3823218047618866,0.99,0.93,0.0001
1716,0.32330650091171265,0.38231000304222107,0.99,0.93,0.0001
1717,0.32330650091171265,0.38228702545166016,0.99,0.93,0.0001
1718,0.32330644130706787,0.3823179602622986,0.99,0.93,0.0001
1719,0.3233063817024231,0.3823172450065613,0.99,0.93,0.0001
1720,0.3233063519001007,0.3823133707046509,0.99,0.93,0.0001
1721,0.3233063817024231,0.38230443000793457,0.99,0.93,0.0001
1722,0.3233063817024231,0.382319837808609,0.99,0.93,0.0001
1723,0.3233063519001007,0.3822956085205078,0.99,0.93,0.0001
1724,0.3233063519001007,0.382304847240448,0.99,0.93,0.0001
1725,0.3233063220977783,0.38230961561203003,0.99,0.93,0.0001
1726,0.32330626249313354,0.382328599691391,0.99,0.93,0.0001
1727,0.32330626249313354,0.3823184072971344,0.99,0.93,0.0001
1728,0.32330623269081116,0.382328063249588,0.99,0.93,0.0001
1729,0.32330623269081116,0.3823128938674927,0.99,0.93,0.0001
1730,0.32330623269081116,0.3822982907295227,0.99,0.93,0.0001
1731,0.32330620288848877,0.38230177760124207,0.99,0.93,0.0001
1732,0.3233061730861664,0.3822833299636841,0.99,0.93,0.0001
1733,0.3233061730861664,0.3822830617427826,0.99,0.93,0.0001
1734,0.3233061134815216,0.38228359818458557,0.99,0.93,0.0001
1735,0.3233060836791992,0.38228076696395874,0.99,0.93,0.0001
1736,0.3233060836791992,0.3822822570800781,0.99,0.93,0.0001
1737,0.3233061134815216,0.3822896182537079,0.99,0.93,0.0001
1738,0.32330605387687683,0.38229697942733765,0.99,0.93,0.0001
1739,0.32330599427223206,0.3822912573814392,0.99,0.93,0.0001
1740,0.32330596446990967,0.3823106288909912,0.99,0.93,0.0001
1741,0.32330599427223206,0.3822980523109436,0.99,0.93,0.0001
1742,0.32330599427223206,0.38227391242980957,0.99,0.93,0.0001
1743,0.3233059346675873,0.3822776675224304,0.99,0.93,0.0001
1744,0.32330596446990967,0.38227853178977966,0.99,0.93,0.0001
1745,0.3233059048652649,0.38227587938308716,0.99,0.93,0.0001
1746,0.3233059048652649,0.3822818696498871,0.99,0.93,0.0001
1747,0.3233058452606201,0.3822959065437317,0.99,0.93,0.0001
1748,0.3233059048652649,0.3822505474090576,0.99,0.93,0.0001
1749,0.32330581545829773,0.38227713108062744,0.99,0.93,0.0001
1750,0.32330581545829773,0.38228094577789307,0.99,0.93,0.0001
1751,0.32330581545829773,0.38230034708976746,0.99,0.93,0.0001
1752,0.32330578565597534,0.38228726387023926,0.99,0.93,0.0001
1753,0.32330578565597534,0.3822758197784424,0.99,0.93,0.0001
1754,0.3233056664466858,0.3822624981403351,0.99,0.93,0.0001
1755,0.3233056962490082,0.3822822570800781,0.99,0.93,0.0001
1756,0.3233056962490082,0.38229358196258545,0.99,0.93,0.0001
1757,0.3233056962490082,0.38228297233581543,0.99,0.93,0.0001
1758,0.3233056664466858,0.38226306438446045,0.99,0.93,0.0001
1759,0.3233056664466858,0.3822972774505615,0.99,0.93,0.0001
1760,0.32330557703971863,0.38228100538253784,0.99,0.93,0.0001
1761,0.32330557703971863,0.38228556513786316,0.99,0.93,0.0001
1762,0.32330554723739624,0.38226523995399475,0.99,0.93,0.0001
1763,0.32330554723739624,0.38227617740631104,0.99,0.93,0.0001
1764,0.32330551743507385,0.3822622001171112,0.99,0.93,0.0001
1765,0.32330551743507385,0.3822888135910034,0.99,0.93,0.0001
