,train loss,val loss,train acc,val acc,lr
0,0.8215920329093933,0.7690024375915527,0.31,0.36,0.001
1,0.7989300489425659,0.7493808269500732,0.31,0.36,0.001
2,0.7760639190673828,0.729724109172821,0.31,0.36,0.001
3,0.7547702789306641,0.7098896503448486,0.31,0.36,0.001
4,0.7354448437690735,0.6912115216255188,0.31,0.36,0.001
5,0.7176246643066406,0.6743122339248657,0.31,0.43,0.001
6,0.7013170719146729,0.6588286757469177,0.32,0.57,0.001
7,0.6864384412765503,0.6454870700836182,0.44,0.7,0.001
8,0.6727597117424011,0.6337313652038574,0.54,0.76,0.001
9,0.6602410674095154,0.6233835816383362,0.69,0.77,0.001
10,0.6490093469619751,0.6141728758811951,0.75,0.79,0.001
11,0.6387367844581604,0.605828583240509,0.81,0.81,0.001
12,0.6291094422340393,0.5981833934783936,0.82,0.8,0.001
13,0.6200931668281555,0.5913138389587402,0.84,0.79,0.001
14,0.6115588545799255,0.5849093198776245,0.84,0.79,0.001
15,0.6034367084503174,0.5789438486099243,0.84,0.79,0.001
16,0.5957393050193787,0.5733199119567871,0.84,0.79,0.001
17,0.5884686708450317,0.5680684447288513,0.84,0.79,0.001
18,0.5817707180976868,0.5631951689720154,0.83,0.79,0.001
19,0.5755771994590759,0.5588769316673279,0.83,0.79,0.001
20,0.5698058605194092,0.5548149943351746,0.84,0.79,0.001
21,0.5643191337585449,0.5511596202850342,0.85,0.78,0.001
22,0.5590890645980835,0.5480318069458008,0.85,0.78,0.001
23,0.5540735721588135,0.5453418493270874,0.85,0.79,0.001
24,0.5492554306983948,0.542907178401947,0.84,0.79,0.001
25,0.5446293354034424,0.5406191945075989,0.85,0.79,0.001
26,0.5401390790939331,0.538241446018219,0.85,0.79,0.001
27,0.535876989364624,0.5358393788337708,0.85,0.79,0.001
28,0.5318983197212219,0.5332721471786499,0.85,0.79,0.001
29,0.5281805992126465,0.5305014848709106,0.85,0.78,0.001
30,0.5246585607528687,0.5277218818664551,0.84,0.78,0.001
31,0.521271288394928,0.5251800417900085,0.84,0.78,0.001
32,0.5181073546409607,0.5230629444122314,0.84,0.78,0.001
33,0.515188455581665,0.5213090777397156,0.85,0.78,0.001
34,0.5124999284744263,0.5200244784355164,0.86,0.78,0.001
35,0.5099475979804993,0.5188475847244263,0.85,0.8,0.001
36,0.5074983835220337,0.5176026225090027,0.85,0.8,0.001
37,0.5051701068878174,0.516311764717102,0.86,0.79,0.001
38,0.5029708743095398,0.5147846937179565,0.86,0.79,0.001
39,0.5008664131164551,0.5134368538856506,0.86,0.79,0.001
40,0.49884283542633057,0.512201726436615,0.87,0.8,0.001
41,0.4968983829021454,0.5111712217330933,0.87,0.79,0.001
42,0.4950411915779114,0.510316789150238,0.87,0.79,0.001
43,0.49325060844421387,0.5095124840736389,0.87,0.79,0.001
44,0.49152106046676636,0.5085767507553101,0.87,0.79,0.001
45,0.489854633808136,0.5073944330215454,0.87,0.79,0.001
46,0.48824238777160645,0.5061169862747192,0.88,0.79,0.001
47,0.4866889715194702,0.5047969222068787,0.88,0.79,0.001
48,0.48518630862236023,0.5037469267845154,0.88,0.8,0.001
49,0.48373621702194214,0.502724289894104,0.88,0.8,0.001
50,0.4823247194290161,0.5020292401313782,0.88,0.8,0.001
51,0.4809499979019165,0.5013963580131531,0.88,0.8,0.001
52,0.4796188473701477,0.5007554888725281,0.88,0.8,0.001
53,0.47832638025283813,0.5000914335250854,0.88,0.8,0.001
54,0.4770854711532593,0.499350368976593,0.88,0.8,0.001
55,0.47587811946868896,0.49868300557136536,0.88,0.81,0.001
56,0.4747070074081421,0.4981764853000641,0.88,0.81,0.001
57,0.47357094287872314,0.49779486656188965,0.88,0.81,0.001
58,0.4724527597427368,0.4973642826080322,0.88,0.81,0.001
59,0.4713588356971741,0.49680405855178833,0.88,0.81,0.001
60,0.47028157114982605,0.49601200222969055,0.88,0.81,0.001
61,0.4692322909832001,0.4954177439212799,0.88,0.81,0.001
62,0.46818336844444275,0.49482014775276184,0.88,0.82,0.001
63,0.4671601951122284,0.49431735277175903,0.88,0.82,0.001
64,0.46614712476730347,0.4936649799346924,0.88,0.82,0.001
65,0.465150386095047,0.49307364225387573,0.88,0.82,0.001
66,0.4641636610031128,0.49237799644470215,0.88,0.82,0.001
67,0.4631999731063843,0.49190548062324524,0.88,0.82,0.001
68,0.46224936842918396,0.4915439486503601,0.88,0.82,0.001
69,0.46130770444869995,0.4912116527557373,0.88,0.83,0.001
70,0.46039271354675293,0.49076157808303833,0.88,0.83,0.001
71,0.45948392152786255,0.49028509855270386,0.88,0.83,0.001
72,0.4585849344730377,0.48981791734695435,0.88,0.83,0.001
73,0.4576927125453949,0.48930224776268005,0.88,0.83,0.001
74,0.4568105638027191,0.48876330256462097,0.88,0.83,0.001
75,0.45592761039733887,0.4883587658405304,0.88,0.83,0.001
76,0.45503559708595276,0.48790159821510315,0.89,0.83,0.001
77,0.45414504408836365,0.48739150166511536,0.89,0.83,0.001
78,0.4532625079154968,0.4868323504924774,0.89,0.83,0.001
79,0.4524001181125641,0.4864833354949951,0.89,0.83,0.001
80,0.45154643058776855,0.4862016439437866,0.9,0.84,0.001
81,0.45070087909698486,0.48602619767189026,0.9,0.84,0.001
82,0.4498547315597534,0.4857901632785797,0.91,0.84,0.001
83,0.4490082859992981,0.485382080078125,0.91,0.84,0.001
84,0.448167622089386,0.48518601059913635,0.91,0.84,0.001
85,0.44731682538986206,0.4850597083568573,0.91,0.84,0.001
86,0.44647079706192017,0.48486441373825073,0.91,0.84,0.001
87,0.44560468196868896,0.48433738946914673,0.91,0.84,0.001
88,0.44475623965263367,0.48372286558151245,0.91,0.84,0.001
89,0.443908154964447,0.48341765999794006,0.91,0.84,0.001
90,0.4430563449859619,0.48306015133857727,0.91,0.84,0.001
91,0.44222384691238403,0.4827300012111664,0.91,0.83,0.001
92,0.44136324524879456,0.482232004404068,0.91,0.83,0.001
93,0.4405052959918976,0.4817875325679779,0.91,0.84,0.001
94,0.4396528899669647,0.4816087782382965,0.91,0.84,0.001
95,0.4387977719306946,0.48145487904548645,0.91,0.84,0.001
96,0.43793773651123047,0.4810152053833008,0.91,0.84,0.001
97,0.4370882511138916,0.4805428981781006,0.91,0.84,0.001
98,0.43622422218322754,0.48028799891471863,0.91,0.84,0.001
99,0.4353676736354828,0.47987091541290283,0.91,0.84,0.001
100,0.4345017969608307,0.47941654920578003,0.91,0.84,0.001
101,0.4336368441581726,0.47903573513031006,0.91,0.84,0.001
102,0.43276292085647583,0.4787137508392334,0.91,0.85,0.001
103,0.43189480900764465,0.4783960282802582,0.92,0.85,0.001
104,0.43100643157958984,0.4779444932937622,0.92,0.85,0.001
105,0.4301108121871948,0.47726550698280334,0.92,0.85,0.001
106,0.4292243719100952,0.4769502878189087,0.92,0.85,0.001
107,0.4283222556114197,0.47660768032073975,0.92,0.85,0.001
108,0.4274190664291382,0.47591423988342285,0.92,0.85,0.001
109,0.4265229403972626,0.47575318813323975,0.93,0.85,0.001
110,0.42560675740242004,0.4754704535007477,0.93,0.85,0.001
111,0.42469486594200134,0.4750829339027405,0.93,0.85,0.001
112,0.42377299070358276,0.47416678071022034,0.93,0.85,0.001
113,0.42285269498825073,0.47390061616897583,0.93,0.85,0.001
114,0.4219129979610443,0.47308945655822754,0.93,0.85,0.001
115,0.4209793210029602,0.472209632396698,0.93,0.85,0.001
116,0.42003607749938965,0.4719802141189575,0.93,0.85,0.001
117,0.41909554600715637,0.4713742733001709,0.93,0.85,0.001
118,0.4181678891181946,0.47099533677101135,0.93,0.85,0.001
119,0.41724371910095215,0.4705478549003601,0.93,0.85,0.001
120,0.4163155257701874,0.4699915051460266,0.93,0.84,0.001
121,0.4153849482536316,0.4697960317134857,0.94,0.85,0.001
122,0.41444331407546997,0.4687531590461731,0.94,0.84,0.001
123,0.4134882092475891,0.4684869050979614,0.94,0.84,0.001
124,0.41254276037216187,0.4678713083267212,0.94,0.84,0.001
125,0.41160881519317627,0.46717512607574463,0.95,0.85,0.001
126,0.41069167852401733,0.46740540862083435,0.95,0.85,0.001
127,0.4097473919391632,0.4661707580089569,0.95,0.85,0.001
128,0.4087900221347809,0.46550095081329346,0.95,0.85,0.001
129,0.4078487753868103,0.46523991227149963,0.95,0.85,0.001
130,0.4069347381591797,0.4639410376548767,0.95,0.85,0.001
131,0.4060024917125702,0.46429625153541565,0.95,0.85,0.001
132,0.405063271522522,0.464019238948822,0.95,0.85,0.001
133,0.4041200280189514,0.4629093110561371,0.95,0.85,0.001
134,0.4031713604927063,0.46323829889297485,0.96,0.85,0.001
135,0.4022217094898224,0.4618469178676605,0.96,0.85,0.001
136,0.4012547731399536,0.4624502956867218,0.96,0.85,0.001
137,0.4003029763698578,0.46112948656082153,0.96,0.85,0.001
138,0.39934268593788147,0.4614166021347046,0.96,0.86,0.001
139,0.39838337898254395,0.45937269926071167,0.96,0.85,0.001
140,0.3974575698375702,0.4611589312553406,0.96,0.86,0.001
141,0.3965764343738556,0.45819443464279175,0.96,0.86,0.001
142,0.3957326114177704,0.4618978202342987,0.96,0.86,0.001
143,0.3947395086288452,0.45769748091697693,0.96,0.85,0.001
144,0.3936869502067566,0.4580835700035095,0.96,0.86,0.001
145,0.3927038311958313,0.45800530910491943,0.96,0.86,0.001
146,0.39187291264533997,0.4556330144405365,0.96,0.85,0.001
147,0.39099201560020447,0.4576471447944641,0.96,0.86,0.001
148,0.3899574279785156,0.45556601881980896,0.96,0.86,0.001
149,0.3889662027359009,0.4550253748893738,0.96,0.87,0.001
150,0.3881111443042755,0.4559808373451233,0.96,0.86,0.001
151,0.38724270462989807,0.4534687399864197,0.97,0.86,0.001
152,0.3863009214401245,0.4541737735271454,0.97,0.85,0.001
153,0.385314404964447,0.45342037081718445,0.97,0.86,0.001
154,0.3843766152858734,0.45244696736335754,0.97,0.87,0.001
155,0.3835414946079254,0.4534980058670044,0.97,0.85,0.001
156,0.3826911151409149,0.45076510310173035,0.97,0.87,0.001
157,0.38179075717926025,0.4525477886199951,0.97,0.85,0.001
158,0.3807664215564728,0.4505159258842468,0.97,0.86,0.001
159,0.37983906269073486,0.4492155909538269,0.97,0.87,0.001
160,0.37899988889694214,0.4500824809074402,0.97,0.86,0.001
161,0.37814223766326904,0.4476323425769806,0.97,0.87,0.001
162,0.37730899453163147,0.449433296918869,0.98,0.87,0.001
163,0.3763834834098816,0.44692692160606384,0.98,0.87,0.001
164,0.37543103098869324,0.4465511441230774,0.98,0.87,0.001
165,0.3745579123497009,0.44610434770584106,0.98,0.87,0.001
166,0.37378352880477905,0.4449571669101715,0.98,0.88,0.001
167,0.37299486994743347,0.4461894631385803,0.98,0.88,0.001
168,0.37220558524131775,0.4437195956707001,0.98,0.88,0.001
169,0.3714020252227783,0.4442589282989502,0.98,0.88,0.001
170,0.3704937696456909,0.44369542598724365,0.98,0.89,0.001
171,0.36968639492988586,0.4431288242340088,0.98,0.88,0.001
172,0.36899444460868835,0.443314790725708,0.98,0.89,0.001
173,0.3684580624103546,0.4414680600166321,0.98,0.88,0.001
174,0.36786574125289917,0.4423937499523163,0.98,0.9,0.001
175,0.36698752641677856,0.44055816531181335,0.98,0.89,0.001
176,0.36604511737823486,0.4403987526893616,0.98,0.89,0.001
177,0.36543262004852295,0.44013088941574097,0.98,0.9,0.001
178,0.36499789357185364,0.43906837701797485,0.98,0.88,0.001
179,0.36429545283317566,0.43859606981277466,0.98,0.9,0.001
180,0.36334294080734253,0.4375605881214142,0.99,0.9,0.001
181,0.36276066303253174,0.4372537136077881,0.99,0.88,0.001
182,0.36230364441871643,0.4378487765789032,0.99,0.9,0.001
183,0.36145466566085815,0.4367601275444031,0.99,0.9,0.001
184,0.3607897162437439,0.43606215715408325,0.99,0.89,0.001
185,0.3603263795375824,0.43540847301483154,0.99,0.9,0.001
186,0.35972023010253906,0.4345049262046814,0.99,0.88,0.001
187,0.3590887486934662,0.4340910017490387,0.99,0.9,0.001
188,0.3584786653518677,0.43357235193252563,0.99,0.9,0.001
189,0.35790687799453735,0.4328693449497223,0.99,0.9,0.001
190,0.3574160039424896,0.4322875142097473,0.99,0.9,0.001
191,0.3569009304046631,0.43154415488243103,0.99,0.9,0.001
192,0.35641393065452576,0.4312933683395386,0.99,0.91,0.001
193,0.3559035062789917,0.43060722947120667,0.99,0.9,0.001
194,0.35545241832733154,0.430665522813797,0.99,0.91,0.001
195,0.35487601161003113,0.42965713143348694,0.99,0.9,0.001
196,0.3543555736541748,0.42927294969558716,0.99,0.91,0.001
197,0.35385727882385254,0.4288063943386078,0.99,0.91,0.001
198,0.35339611768722534,0.4284324645996094,0.99,0.91,0.001
199,0.3529762923717499,0.4278120696544647,0.99,0.91,0.001
200,0.35258662700653076,0.42762288451194763,0.99,0.9,0.001
201,0.352268785238266,0.4275718331336975,0.99,0.91,0.001
202,0.3519679605960846,0.427241712808609,0.99,0.9,0.001
203,0.35162970423698425,0.4267098903656006,0.99,0.91,0.001
204,0.3510585129261017,0.4261530935764313,0.99,0.9,0.001
205,0.3505195677280426,0.42604270577430725,0.99,0.91,0.001
206,0.3501207232475281,0.42559814453125,0.99,0.91,0.001
207,0.3497951030731201,0.42540085315704346,0.99,0.9,0.001
208,0.3494921922683716,0.42485684156417847,0.99,0.91,0.001
209,0.3491474986076355,0.4246799945831299,0.99,0.91,0.001
210,0.3487868010997772,0.4240759015083313,0.99,0.91,0.001
211,0.34840935468673706,0.4239363968372345,0.99,0.91,0.001
212,0.3480261564254761,0.42375800013542175,0.99,0.91,0.001
213,0.34766045212745667,0.4231947064399719,0.99,0.91,0.001
214,0.3473464548587799,0.4230601191520691,0.99,0.91,0.001
215,0.3470509350299835,0.4225151836872101,0.99,0.91,0.001
216,0.34679698944091797,0.42258742451667786,0.99,0.91,0.001
217,0.3465632200241089,0.4220651686191559,0.99,0.91,0.001
218,0.34629786014556885,0.42218708992004395,0.99,0.91,0.001
219,0.34593918919563293,0.42135024070739746,0.99,0.91,0.001
220,0.34557387232780457,0.4212253987789154,0.99,0.91,0.001
221,0.3452540338039398,0.4211236238479614,0.99,0.91,0.001
222,0.34500443935394287,0.4207378029823303,0.99,0.91,0.001
223,0.3447831869125366,0.4207790791988373,0.99,0.91,0.001
224,0.3445548117160797,0.4201245903968811,0.99,0.91,0.001
225,0.3442510664463043,0.4200271666049957,0.99,0.91,0.001
226,0.3439256250858307,0.41974160075187683,0.99,0.91,0.001
227,0.3436499536037445,0.4195733666419983,0.99,0.91,0.001
228,0.3434593081474304,0.4197726845741272,0.99,0.91,0.001
229,0.3433072566986084,0.4193342626094818,0.99,0.91,0.001
230,0.34313198924064636,0.4194878339767456,0.99,0.91,0.001
231,0.3428196310997009,0.4187891483306885,0.99,0.91,0.001
232,0.3424772620201111,0.4186321496963501,0.99,0.91,0.001
233,0.3422345817089081,0.4188465476036072,0.99,0.91,0.001
234,0.3420773446559906,0.4183831810951233,0.99,0.91,0.001
235,0.3418678343296051,0.41845130920410156,0.99,0.91,0.001
236,0.34160125255584717,0.4179574251174927,0.99,0.91,0.001
237,0.3413531184196472,0.41775989532470703,0.99,0.91,0.001
238,0.34117981791496277,0.4178878664970398,0.99,0.91,0.001
239,0.3410232663154602,0.4173673987388611,0.99,0.91,0.001
240,0.3408176004886627,0.41746097803115845,0.99,0.91,0.001
241,0.3405469059944153,0.417179137468338,0.99,0.91,0.001
242,0.34032967686653137,0.41695812344551086,0.99,0.91,0.001
243,0.3401602506637573,0.41709956526756287,0.99,0.91,0.001
244,0.33998337388038635,0.41652247309684753,0.99,0.91,0.001
245,0.33977439999580383,0.4165017008781433,0.99,0.91,0.001
246,0.3395535945892334,0.41643550992012024,0.99,0.91,0.001
247,0.3393722176551819,0.4162188768386841,0.99,0.91,0.001
248,0.3392156958580017,0.41633665561676025,0.99,0.91,0.001
249,0.33902302384376526,0.4159715175628662,0.99,0.91,0.001
250,0.33882376551628113,0.41582056879997253,0.99,0.91,0.001
251,0.33863773941993713,0.41576266288757324,0.99,0.91,0.001
252,0.33847329020500183,0.4154392182826996,0.99,0.91,0.001
253,0.33831700682640076,0.4155822992324829,0.99,0.91,0.001
254,0.3381638824939728,0.4151192009449005,0.99,0.91,0.001
255,0.337988942861557,0.41516178846359253,0.99,0.91,0.001
256,0.33779916167259216,0.4149042069911957,0.99,0.91,0.001
257,0.3376244604587555,0.41463974118232727,0.99,0.91,0.001
258,0.3374684154987335,0.4146580994129181,0.99,0.91,0.001
259,0.3373262882232666,0.4142186641693115,0.99,0.91,0.001
260,0.3371715247631073,0.41429603099823,0.99,0.91,0.001
261,0.3370059132575989,0.41384804248809814,0.99,0.91,0.001
262,0.3368206322193146,0.4136368930339813,0.99,0.91,0.001
263,0.33664923906326294,0.4134250283241272,0.99,0.91,0.001
264,0.3364936113357544,0.41308361291885376,0.99,0.91,0.001
265,0.3363492488861084,0.4131319522857666,0.99,0.91,0.001
266,0.3362087607383728,0.4126226305961609,0.99,0.91,0.001
267,0.336052805185318,0.4127362370491028,0.99,0.91,0.001
268,0.3358602523803711,0.4122408330440521,0.99,0.91,0.001
269,0.3356565833091736,0.4121626913547516,0.99,0.91,0.001
270,0.3354613184928894,0.4120692312717438,0.99,0.91,0.001
271,0.3352810740470886,0.4117721617221832,0.99,0.91,0.001
272,0.33509835600852966,0.4118959903717041,0.99,0.91,0.001
273,0.3349156677722931,0.41136661171913147,0.99,0.91,0.001
274,0.3347271978855133,0.4114558696746826,0.99,0.91,0.001
275,0.3344864249229431,0.41114598512649536,0.99,0.91,0.001
276,0.33424508571624756,0.41101863980293274,0.99,0.91,0.001
277,0.3339206278324127,0.41030314564704895,0.99,0.92,0.001
278,0.3335910439491272,0.4102206528186798,0.99,0.91,0.001
279,0.3332432806491852,0.4102066159248352,0.99,0.92,0.001
280,0.33288609981536865,0.40973904728889465,0.99,0.92,0.001
281,0.33251601457595825,0.4094657897949219,0.99,0.91,0.001
282,0.33215445280075073,0.40951019525527954,0.99,0.92,0.001
283,0.33179986476898193,0.41009795665740967,0.99,0.91,0.001
284,0.3315563499927521,0.4086742699146271,0.99,0.92,0.001
285,0.33168333768844604,0.4109592139720917,0.99,0.91,0.001
286,0.33205538988113403,0.40976786613464355,1.0,0.92,0.001
287,0.3314835727214813,0.4095951020717621,1.0,0.91,0.001
288,0.33041059970855713,0.40853413939476013,1.0,0.92,0.001
289,0.33007141947746277,0.4097591042518616,1.0,0.92,0.001
290,0.33021339774131775,0.41189420223236084,1.0,0.91,0.001
291,0.33001890778541565,0.4084273874759674,1.0,0.93,0.001
292,0.3292871415615082,0.4082880914211273,1.0,0.92,0.001
293,0.32899656891822815,0.4090271294116974,1.0,0.91,0.001
294,0.3291480243206024,0.40843790769577026,1.0,0.92,0.001
295,0.3286724090576172,0.4077222943305969,1.0,0.92,0.001
296,0.3282838463783264,0.4073035418987274,1.0,0.92,0.001
297,0.3280162513256073,0.4075360894203186,1.0,0.91,0.001
298,0.3279597759246826,0.40673571825027466,1.0,0.92,0.001
299,0.3276631236076355,0.4065974950790405,1.0,0.92,0.001
300,0.3273617923259735,0.40729132294654846,1.0,0.92,0.001
301,0.3271465003490448,0.4069463312625885,1.0,0.91,0.001
302,0.3270396292209625,0.4063365161418915,1.0,0.92,0.001
303,0.3269229531288147,0.4071103036403656,1.0,0.92,0.001
304,0.32667869329452515,0.40666139125823975,1.0,0.91,0.001
305,0.3264308273792267,0.40644896030426025,1.0,0.92,0.001
306,0.32627102732658386,0.406128853559494,1.0,0.91,0.001
307,0.3261319100856781,0.4060424864292145,1.0,0.92,0.001
308,0.32595959305763245,0.4057324230670929,1.0,0.92,0.001
309,0.32576069235801697,0.40543749928474426,1.0,0.92,0.001
310,0.3255905210971832,0.40567439794540405,1.0,0.92,0.001
311,0.3254719078540802,0.4056064188480377,1.0,0.91,0.001
312,0.32533299922943115,0.4054550528526306,1.0,0.92,0.001
313,0.3251791000366211,0.4052203893661499,1.0,0.92,0.001
314,0.3250137269496918,0.4051430821418762,1.0,0.91,0.001
315,0.324861615896225,0.4047054946422577,1.0,0.92,0.001
316,0.32473620772361755,0.4047692120075226,1.0,0.92,0.001
317,0.32465434074401855,0.4050549566745758,1.0,0.92,0.001
318,0.32453784346580505,0.40495941042900085,1.0,0.92,0.001
319,0.3244172930717468,0.40461716055870056,1.0,0.92,0.001
320,0.3242368698120117,0.40468040108680725,1.0,0.92,0.001
321,0.32411420345306396,0.40453284978866577,1.0,0.91,0.001
322,0.3240102529525757,0.4041762053966522,1.0,0.92,0.001
323,0.32391148805618286,0.4041154086589813,1.0,0.92,0.001
324,0.32378315925598145,0.4040316641330719,1.0,0.92,0.001
325,0.32365086674690247,0.40421223640441895,1.0,0.92,0.001
326,0.3235454857349396,0.40398484468460083,1.0,0.92,0.001
327,0.3234420418739319,0.4040381610393524,1.0,0.92,0.001
328,0.32334911823272705,0.40419575572013855,1.0,0.91,0.001
329,0.3232331871986389,0.4036678671836853,1.0,0.92,0.001
330,0.3231220543384552,0.40332701802253723,1.0,0.92,0.001
331,0.32301971316337585,0.4035448431968689,1.0,0.92,0.001
332,0.32293838262557983,0.40341365337371826,1.0,0.92,0.001
333,0.3228583037853241,0.403281033039093,1.0,0.92,0.001
334,0.3227579593658447,0.4031297266483307,1.0,0.92,0.001
335,0.322647362947464,0.4031531512737274,1.0,0.92,0.001
336,0.3225489556789398,0.4030115008354187,1.0,0.92,0.001
337,0.32247450947761536,0.40273112058639526,1.0,0.92,0.001
338,0.3224210739135742,0.40285640954971313,1.0,0.92,0.001
339,0.3223404586315155,0.40282273292541504,1.0,0.92,0.001
340,0.32222437858581543,0.4026809632778168,1.0,0.92,0.001
341,0.3221205174922943,0.40252387523651123,1.0,0.92,0.001
342,0.32205286622047424,0.4024800956249237,1.0,0.92,0.001
343,0.32200202345848083,0.40289342403411865,1.0,0.92,0.001
344,0.3219275176525116,0.4023962914943695,1.0,0.92,0.001
345,0.32180675864219666,0.4022986590862274,1.0,0.92,0.001
346,0.32172924280166626,0.40245360136032104,1.0,0.92,0.001
347,0.32169583439826965,0.40228381752967834,1.0,0.92,0.001
348,0.321635365486145,0.40229934453964233,1.0,0.92,0.001
349,0.3215375244617462,0.4020717740058899,1.0,0.92,0.001
350,0.32143348455429077,0.4020650088787079,1.0,0.92,0.001
351,0.3213667571544647,0.40214821696281433,1.0,0.92,0.001
352,0.32132241129875183,0.40197867155075073,1.0,0.92,0.001
353,0.32125532627105713,0.4020535945892334,1.0,0.92,0.001
354,0.32117098569869995,0.4019213616847992,1.0,0.92,0.001
355,0.32109031081199646,0.4017050862312317,1.0,0.92,0.001
356,0.3210470974445343,0.40158629417419434,1.0,0.92,0.001
357,0.32099658250808716,0.40167301893234253,1.0,0.92,0.001
358,0.32091450691223145,0.4018090069293976,1.0,0.92,0.001
359,0.3208361566066742,0.40167999267578125,1.0,0.92,0.001
360,0.32077234983444214,0.40153875946998596,1.0,0.92,0.001
361,0.32072222232818604,0.40150517225265503,1.0,0.92,0.001
362,0.3206647038459778,0.4014490842819214,1.0,0.92,0.001
363,0.32059192657470703,0.4013758897781372,1.0,0.92,0.001
364,0.32053664326667786,0.4011925458908081,1.0,0.92,0.001
365,0.3204869329929352,0.40112435817718506,1.0,0.92,0.001
366,0.3204304575920105,0.4013073444366455,1.0,0.92,0.001
367,0.32036834955215454,0.4012976586818695,1.0,0.92,0.001
368,0.3203073740005493,0.4010125994682312,1.0,0.92,0.001
369,0.32024940848350525,0.40100011229515076,1.0,0.92,0.001
370,0.3201974928379059,0.4010535776615143,1.0,0.92,0.001
371,0.3201442062854767,0.4009413421154022,1.0,0.92,0.001
372,0.3200877010822296,0.4007915258407593,1.0,0.92,0.001
373,0.32003557682037354,0.40098321437835693,1.0,0.92,0.001
374,0.3199855089187622,0.4008968770503998,1.0,0.92,0.001
375,0.3199436664581299,0.4007524251937866,1.0,0.92,0.001
376,0.3198980987071991,0.40065696835517883,1.0,0.92,0.001
377,0.3198520541191101,0.40063804388046265,1.0,0.92,0.001
378,0.3197983205318451,0.4005391299724579,1.0,0.92,0.001
379,0.31974589824676514,0.40051525831222534,1.0,0.92,0.001
380,0.3196951746940613,0.4005953073501587,1.0,0.92,0.001
381,0.31964966654777527,0.4005337059497833,1.0,0.92,0.001
382,0.31960955262184143,0.4004615843296051,1.0,0.92,0.001
383,0.31957006454467773,0.40051114559173584,1.0,0.92,0.001
384,0.3195253908634186,0.40043172240257263,1.0,0.92,0.001
385,0.3194781541824341,0.40028995275497437,1.0,0.92,0.001
386,0.319430410861969,0.4002612829208374,1.0,0.92,0.001
387,0.31938427686691284,0.4003355801105499,1.0,0.92,0.001
388,0.31934475898742676,0.40026023983955383,1.0,0.92,0.001
389,0.319308876991272,0.4001554548740387,1.0,0.92,0.001
390,0.31927236914634705,0.4001816511154175,1.0,0.92,0.001
391,0.31922703981399536,0.40000012516975403,1.0,0.92,0.001
392,0.31918227672576904,0.40003031492233276,1.0,0.92,0.001
393,0.3191380202770233,0.40001538395881653,1.0,0.92,0.001
394,0.31909745931625366,0.4000544846057892,1.0,0.92,0.001
395,0.31905853748321533,0.4001583456993103,1.0,0.92,0.001
396,0.31902003288269043,0.40006911754608154,1.0,0.92,0.001
397,0.31897833943367004,0.39992454648017883,1.0,0.92,0.001
398,0.3189414143562317,0.3998713791370392,1.0,0.92,0.001
399,0.31890034675598145,0.39986124634742737,1.0,0.92,0.001
400,0.31886371970176697,0.39976251125335693,1.0,0.92,0.001
401,0.3188275396823883,0.39975905418395996,1.0,0.92,0.001
402,0.3187890350818634,0.39964744448661804,1.0,0.92,0.001
403,0.31875285506248474,0.39949509501457214,1.0,0.92,0.001
404,0.31872501969337463,0.3997468650341034,1.0,0.92,0.001
405,0.31869345903396606,0.39956802129745483,1.0,0.92,0.001
406,0.31865647435188293,0.399459570646286,1.0,0.92,0.001
407,0.3186243176460266,0.3994266986846924,1.0,0.92,0.001
408,0.3185809254646301,0.399436354637146,1.0,0.92,0.001
409,0.3185407221317291,0.39943569898605347,1.0,0.92,0.001
410,0.3185077905654907,0.39920344948768616,1.0,0.92,0.001
411,0.31847506761550903,0.3992226719856262,1.0,0.92,0.001
412,0.3184429109096527,0.39921435713768005,1.0,0.92,0.001
413,0.31841009855270386,0.3992466628551483,1.0,0.92,0.001
414,0.3183770775794983,0.3991475999355316,1.0,0.92,0.001
415,0.31834638118743896,0.39919155836105347,1.0,0.92,0.001
416,0.3183128833770752,0.3993087708950043,1.0,0.92,0.001
417,0.3182813823223114,0.3990481197834015,1.0,0.92,0.001
418,0.3182516098022461,0.39898207783699036,1.0,0.92,0.001
419,0.3182227611541748,0.39899948239326477,1.0,0.92,0.001
420,0.3181901276111603,0.3992149829864502,1.0,0.92,0.001
421,0.318159818649292,0.3990137577056885,1.0,0.92,0.001
422,0.31812745332717896,0.39899611473083496,1.0,0.92,0.001
423,0.3181002736091614,0.39893269538879395,1.0,0.92,0.001
424,0.318076491355896,0.3986853361129761,1.0,0.92,0.001
425,0.31804704666137695,0.39871323108673096,1.0,0.92,0.001
426,0.31801825761795044,0.3987210988998413,1.0,0.92,0.001
427,0.31798556447029114,0.398802787065506,1.0,0.92,0.001
428,0.31795400381088257,0.3986806571483612,1.0,0.92,0.001
429,0.31792715191841125,0.3986791968345642,1.0,0.92,0.001
430,0.31790077686309814,0.3987799882888794,1.0,0.92,0.001
431,0.31787362694740295,0.3986758887767792,1.0,0.92,0.001
432,0.31784433126449585,0.3985865116119385,1.0,0.92,0.001
433,0.3178170323371887,0.3985722064971924,1.0,0.92,0.001
434,0.3177877366542816,0.3984414041042328,1.0,0.92,0.001
435,0.31776273250579834,0.39840832352638245,1.0,0.92,0.001
436,0.31773698329925537,0.39841777086257935,1.0,0.92,0.001
437,0.3177104592323303,0.3983502984046936,1.0,0.92,0.001
438,0.31768590211868286,0.3983733654022217,1.0,0.92,0.001
439,0.3176604211330414,0.39841389656066895,1.0,0.92,0.001
440,0.31763550639152527,0.39842838048934937,1.0,0.92,0.001
441,0.3176136910915375,0.3982211649417877,1.0,0.92,0.001
442,0.31758934259414673,0.3983668088912964,1.0,0.92,0.001
443,0.3175652027130127,0.39814895391464233,1.0,0.92,0.001
444,0.31753769516944885,0.3981598913669586,1.0,0.92,0.001
445,0.3175133466720581,0.3983062505722046,1.0,0.92,0.001
446,0.3174887001514435,0.39821693301200867,1.0,0.92,0.001
447,0.317466139793396,0.39800429344177246,1.0,0.92,0.001
448,0.31744617223739624,0.3980993926525116,1.0,0.92,0.001
449,0.3174234628677368,0.3981764316558838,1.0,0.92,0.001
450,0.3173977732658386,0.3980748653411865,1.0,0.92,0.001
451,0.3173721134662628,0.39805102348327637,1.0,0.92,0.001
452,0.31735312938690186,0.3982270061969757,1.0,0.92,0.001
453,0.3173363208770752,0.3978813886642456,1.0,0.92,0.001
454,0.31731244921684265,0.39788028597831726,1.0,0.92,0.001
455,0.31728801131248474,0.39796170592308044,1.0,0.92,0.001
456,0.31726157665252686,0.3980170786380768,1.0,0.92,0.001
457,0.31724148988723755,0.39794936776161194,1.0,0.92,0.001
458,0.3172217905521393,0.3978503346443176,1.0,0.92,0.001
459,0.31720128655433655,0.3979647159576416,1.0,0.92,0.001
460,0.3171800673007965,0.397894948720932,1.0,0.92,0.001
461,0.3171584904193878,0.3977869153022766,1.0,0.92,0.001
462,0.3171393871307373,0.3978159725666046,1.0,0.92,0.001
463,0.3171205222606659,0.3981039822101593,1.0,0.92,0.001
464,0.3171048164367676,0.39790108799934387,1.0,0.92,0.001
465,0.31708383560180664,0.3977949619293213,1.0,0.92,0.001
466,0.31705987453460693,0.39768967032432556,1.0,0.92,0.001
467,0.3170362412929535,0.3978610336780548,1.0,0.92,0.001
468,0.3170178234577179,0.39779990911483765,1.0,0.92,0.001
469,0.317001610994339,0.3976624310016632,1.0,0.92,0.001
470,0.31698623299598694,0.39790189266204834,1.0,0.92,0.001
471,0.31696853041648865,0.3979053497314453,1.0,0.92,0.001
472,0.3169442415237427,0.3977223336696625,1.0,0.92,0.001
473,0.3169225752353668,0.3976903557777405,1.0,0.92,0.001
474,0.31690502166748047,0.39771389961242676,1.0,0.92,0.001
475,0.316887229681015,0.3976941704750061,1.0,0.92,0.001
476,0.316867858171463,0.39754119515419006,1.0,0.92,0.001
477,0.31684964895248413,0.3978407680988312,1.0,0.92,0.001
478,0.3168317377567291,0.39778268337249756,1.0,0.92,0.001
479,0.31681546568870544,0.39753541350364685,1.0,0.92,0.001
480,0.31679415702819824,0.39756402373313904,1.0,0.92,0.001
481,0.3167758882045746,0.3977828621864319,1.0,0.92,0.001
482,0.3167586624622345,0.39751312136650085,1.0,0.92,0.001
483,0.316742479801178,0.39739713072776794,1.0,0.92,0.001
484,0.31672412157058716,0.39755892753601074,1.0,0.92,0.001
485,0.31670838594436646,0.39758220314979553,1.0,0.92,0.001
486,0.3166922926902771,0.3974875509738922,1.0,0.92,0.001
487,0.31667450070381165,0.3976321816444397,1.0,0.92,0.001
488,0.31665652990341187,0.39742711186408997,1.0,0.92,0.001
489,0.3166399896144867,0.39748767018318176,1.0,0.92,0.001
490,0.3166271150112152,0.3974592089653015,1.0,0.92,0.001
491,0.3166128993034363,0.3974696099758148,1.0,0.92,0.001
492,0.31658852100372314,0.39753958582878113,1.0,0.92,0.001
493,0.31657108664512634,0.39735865592956543,1.0,0.92,0.001
494,0.3165590167045593,0.3973877429962158,1.0,0.92,0.001
495,0.316541850566864,0.39743572473526,1.0,0.92,0.001
496,0.3165213167667389,0.39749062061309814,1.0,0.92,0.001
497,0.3165068030357361,0.39733344316482544,1.0,0.92,0.001
498,0.3164950907230377,0.3974556624889374,1.0,0.92,0.001
499,0.31647810339927673,0.3973753750324249,1.0,0.92,0.001
500,0.3164595067501068,0.3973744213581085,1.0,0.92,0.001
501,0.3164442181587219,0.39725199341773987,1.0,0.92,0.001
502,0.31643199920654297,0.3972930908203125,1.0,0.92,0.001
503,0.3164154887199402,0.3974660038948059,1.0,0.92,0.001
504,0.3163999319076538,0.39728671312332153,1.0,0.92,0.001
505,0.31638389825820923,0.39710232615470886,1.0,0.92,0.001
506,0.3163721561431885,0.3974883258342743,1.0,0.92,0.001
507,0.31635618209838867,0.39739954471588135,1.0,0.92,0.001
508,0.3163396418094635,0.3974060118198395,1.0,0.92,0.001
509,0.31632527709007263,0.39737507700920105,1.0,0.92,0.001
510,0.3163143992424011,0.3971484303474426,1.0,0.92,0.001
511,0.31629788875579834,0.39722198247909546,1.0,0.92,0.001
512,0.3162842094898224,0.3972618579864502,1.0,0.92,0.001
513,0.31627050042152405,0.39714035391807556,1.0,0.92,0.001
514,0.31625425815582275,0.3973061740398407,1.0,0.92,0.001
515,0.3162423074245453,0.3971126675605774,1.0,0.92,0.001
516,0.3162323236465454,0.39721691608428955,1.0,0.92,0.001
517,0.31621986627578735,0.39704978466033936,1.0,0.92,0.001
518,0.31620460748672485,0.3972531855106354,1.0,0.92,0.001
519,0.31618809700012207,0.3971027731895447,1.0,0.92,0.001
520,0.3161739706993103,0.3970811069011688,1.0,0.92,0.001
521,0.3161626160144806,0.39711567759513855,1.0,0.92,0.001
522,0.3161487877368927,0.3971731960773468,1.0,0.92,0.001
523,0.31613603234291077,0.3969822824001312,1.0,0.92,0.001
524,0.3161216974258423,0.3969402611255646,1.0,0.92,0.001
525,0.31611043214797974,0.39688682556152344,1.0,0.92,0.001
526,0.31609970331192017,0.39696207642555237,1.0,0.92,0.001
527,0.31608933210372925,0.39681488275527954,1.0,0.92,0.001
528,0.3160744607448578,0.3970225155353546,1.0,0.92,0.001
529,0.3160601556301117,0.39686307311058044,1.0,0.92,0.001
530,0.3160485029220581,0.39666712284088135,1.0,0.92,0.001
531,0.3160408139228821,0.39687222242355347,1.0,0.92,0.001
532,0.31602513790130615,0.3969259560108185,1.0,0.92,0.001
533,0.3160117268562317,0.39664405584335327,1.0,0.92,0.001
534,0.31600049138069153,0.3965340554714203,1.0,0.92,0.001
535,0.3159950375556946,0.39666804671287537,1.0,0.92,0.001
536,0.3159797787666321,0.39704522490501404,1.0,0.92,0.001
537,0.31596505641937256,0.3968490660190582,1.0,0.92,0.001
538,0.3159532845020294,0.3965117633342743,1.0,0.92,0.001
539,0.31594613194465637,0.39674413204193115,1.0,0.92,0.001
540,0.31593066453933716,0.39679741859436035,1.0,0.92,0.001
541,0.3159187436103821,0.3966631591320038,1.0,0.92,0.001
542,0.31590819358825684,0.39655688405036926,1.0,0.92,0.001
543,0.3158993721008301,0.3965549170970917,1.0,0.92,0.001
544,0.3158870041370392,0.3967813551425934,1.0,0.92,0.001
545,0.31587323546409607,0.3967118561267853,1.0,0.92,0.001
546,0.3158639669418335,0.39651042222976685,1.0,0.92,0.001
547,0.3158561885356903,0.3966778814792633,1.0,0.92,0.001
548,0.3158433139324188,0.39655497670173645,1.0,0.92,0.001
549,0.3158312141895294,0.39655521512031555,1.0,0.92,0.001
550,0.3158194422721863,0.39645153284072876,1.0,0.92,0.001
551,0.315809041261673,0.39646703004837036,1.0,0.92,0.001
552,0.31579893827438354,0.39649590849876404,1.0,0.92,0.001
553,0.315787136554718,0.3965449929237366,1.0,0.92,0.001
554,0.31577637791633606,0.3964969217777252,1.0,0.92,0.001
555,0.3157663345336914,0.39656421542167664,1.0,0.92,0.001
556,0.3157569169998169,0.3963857889175415,1.0,0.92,0.001
557,0.3157453238964081,0.3963290750980377,1.0,0.92,0.001
558,0.3157360553741455,0.3963697552680969,1.0,0.92,0.001
559,0.3157249689102173,0.396384060382843,1.0,0.92,0.001
560,0.3157147467136383,0.3964916467666626,1.0,0.92,0.001
561,0.3157050907611847,0.39647963643074036,1.0,0.92,0.001
562,0.31569433212280273,0.39643624424934387,1.0,0.92,0.001
563,0.3156851530075073,0.3963828980922699,1.0,0.92,0.001
564,0.3156771957874298,0.39613816142082214,1.0,0.92,0.001
565,0.31566813588142395,0.39642924070358276,1.0,0.92,0.001
566,0.31565624475479126,0.3965425193309784,1.0,0.92,0.001
567,0.3156489133834839,0.3961888253688812,1.0,0.92,0.001
568,0.31564199924468994,0.39642757177352905,1.0,0.92,0.001
569,0.3156329393386841,0.3963300287723541,1.0,0.92,0.001
570,0.31562045216560364,0.3964034914970398,1.0,0.92,0.001
571,0.31560999155044556,0.3962605595588684,1.0,0.92,0.001
572,0.31560200452804565,0.39625084400177,1.0,0.92,0.001
573,0.31559231877326965,0.3964429497718811,1.0,0.92,0.001
574,0.31558170914649963,0.39640387892723083,1.0,0.92,0.001
575,0.31557393074035645,0.3960103690624237,1.0,0.92,0.001
576,0.3155648410320282,0.3961983919143677,1.0,0.92,0.001
577,0.31555575132369995,0.3963380753993988,1.0,0.92,0.001
578,0.31554552912712097,0.39633768796920776,1.0,0.92,0.001
579,0.31553661823272705,0.39620018005371094,1.0,0.92,0.001
580,0.31552818417549133,0.3962683081626892,1.0,0.92,0.001
581,0.3155188262462616,0.39631348848342896,1.0,0.92,0.001
582,0.31551235914230347,0.396396666765213,1.0,0.92,0.001
583,0.3155040442943573,0.39609065651893616,1.0,0.92,0.001
584,0.31549426913261414,0.3961559236049652,1.0,0.92,0.001
585,0.31548604369163513,0.39635518193244934,1.0,0.92,0.001
586,0.3154773414134979,0.39636218547821045,1.0,0.92,0.001
587,0.3154698610305786,0.396221399307251,1.0,0.92,0.001
588,0.31546086072921753,0.39616966247558594,1.0,0.92,0.001
589,0.3154522478580475,0.39637425541877747,1.0,0.92,0.001
590,0.31544455885887146,0.39651480317115784,1.0,0.92,0.001
591,0.3154381513595581,0.3962343633174896,1.0,0.92,0.001
592,0.31542718410491943,0.3962002098560333,1.0,0.92,0.001
593,0.31542012095451355,0.39633238315582275,1.0,0.92,0.001
594,0.3154134154319763,0.39625996351242065,1.0,0.92,0.001
595,0.3154045343399048,0.3961620628833771,1.0,0.92,0.001
596,0.3153938949108124,0.3961580693721771,1.0,0.92,0.001
597,0.3153876066207886,0.39624571800231934,1.0,0.92,0.001
598,0.31537890434265137,0.3963968753814697,1.0,0.92,0.001
599,0.31536969542503357,0.39625823497772217,1.0,0.92,0.001
600,0.31536242365837097,0.396077424287796,1.0,0.92,0.001
601,0.31535565853118896,0.3964311480522156,1.0,0.92,0.001
602,0.3153466284275055,0.3963554799556732,1.0,0.92,0.001
603,0.3153396248817444,0.3961414396762848,1.0,0.92,0.001
604,0.31533122062683105,0.396152526140213,1.0,0.92,0.001
605,0.3153230547904968,0.3963199257850647,1.0,0.92,0.001
606,0.31531596183776855,0.39605769515037537,1.0,0.92,0.001
607,0.31530797481536865,0.3961283564567566,1.0,0.92,0.001
608,0.31530073285102844,0.39625784754753113,1.0,0.92,0.001
609,0.31529200077056885,0.39633846282958984,1.0,0.92,0.001
610,0.3152874708175659,0.39622238278388977,1.0,0.92,0.001
611,0.31527984142303467,0.3959712088108063,1.0,0.92,0.001
612,0.31527093052864075,0.39608412981033325,1.0,0.92,0.001
613,0.3152621388435364,0.39621254801750183,1.0,0.92,0.001
614,0.31525662541389465,0.3961523473262787,1.0,0.92,0.001
615,0.3152485191822052,0.39602017402648926,1.0,0.92,0.001
616,0.31524187326431274,0.3962830603122711,1.0,0.92,0.001
617,0.3152335584163666,0.39630186557769775,1.0,0.92,0.001
618,0.31522828340530396,0.3959791660308838,1.0,0.92,0.001
619,0.3152196407318115,0.3959066867828369,1.0,0.92,0.001
620,0.3152151107788086,0.3962172269821167,1.0,0.92,0.001
621,0.31520646810531616,0.3963497579097748,1.0,0.92,0.001
622,0.3152001202106476,0.39611637592315674,1.0,0.92,0.001
623,0.3151920437812805,0.39589157700538635,1.0,0.92,0.001
624,0.3151867091655731,0.39608779549598694,1.0,0.92,0.001
625,0.3151780068874359,0.3961440622806549,1.0,0.92,0.001
626,0.31517282128334045,0.39595717191696167,1.0,0.92,0.001
627,0.31516575813293457,0.39596879482269287,1.0,0.92,0.001
628,0.3151589334011078,0.39611512422561646,1.0,0.92,0.001
629,0.31515249609947205,0.3962235152721405,1.0,0.92,0.001
630,0.315144419670105,0.3960937261581421,1.0,0.92,0.001
631,0.3151377737522125,0.39592283964157104,1.0,0.92,0.001
632,0.3151315748691559,0.39600086212158203,1.0,0.92,0.001
633,0.31512537598609924,0.39603161811828613,1.0,0.92,0.001
634,0.3151187598705292,0.3959445059299469,1.0,0.92,0.001
635,0.31511175632476807,0.3959846794605255,1.0,0.92,0.001
636,0.3151061236858368,0.39606815576553345,1.0,0.92,0.001
637,0.31509992480278015,0.3960490822792053,1.0,0.92,0.001
638,0.31509295105934143,0.3959451913833618,1.0,0.92,0.001
639,0.3150867521762848,0.3959376811981201,1.0,0.92,0.001
640,0.31508108973503113,0.39606761932373047,1.0,0.92,0.001
641,0.31507590413093567,0.39591580629348755,1.0,0.92,0.001
642,0.3150692582130432,0.39592352509498596,1.0,0.92,0.001
643,0.3150620460510254,0.39593374729156494,1.0,0.92,0.001
644,0.31505656242370605,0.3959196209907532,1.0,0.92,0.001
645,0.3150504231452942,0.39597442746162415,1.0,0.92,0.001
646,0.3150438964366913,0.3959762454032898,1.0,0.92,0.001
647,0.3150376081466675,0.39601361751556396,1.0,0.92,0.001
648,0.31503185629844666,0.39590317010879517,1.0,0.92,0.001
649,0.3150257170200348,0.3958348333835602,1.0,0.92,0.001
650,0.31502053141593933,0.3959410488605499,1.0,0.92,0.001
651,0.3150143027305603,0.39600250124931335,1.0,0.92,0.001
652,0.31500887870788574,0.39605218172073364,1.0,0.92,0.001
653,0.3150029480457306,0.39602261781692505,1.0,0.92,0.001
654,0.3149973452091217,0.3958788216114044,1.0,0.92,0.001
655,0.31499144434928894,0.39592182636260986,1.0,0.92,0.001
656,0.3149852454662323,0.3960490822792053,1.0,0.92,0.001
657,0.3149791955947876,0.3959900140762329,1.0,0.92,0.001
658,0.3149733543395996,0.3957788050174713,1.0,0.92,0.001
659,0.31496864557266235,0.39587557315826416,1.0,0.92,0.001
660,0.3149636685848236,0.3959500789642334,1.0,0.92,0.001
661,0.3149564266204834,0.39606574177742004,1.0,0.92,0.001
662,0.31495121121406555,0.39592358469963074,1.0,0.92,0.001
663,0.3149469494819641,0.3959685266017914,1.0,0.92,0.001
664,0.3149406909942627,0.3960641622543335,1.0,0.92,0.001
665,0.31493449211120605,0.3959251046180725,1.0,0.92,0.001
666,0.3149298429489136,0.39577603340148926,1.0,0.92,0.001
667,0.314924418926239,0.3957379162311554,1.0,0.92,0.001
668,0.3149181306362152,0.395994633436203,1.0,0.92,0.001
669,0.31491225957870483,0.39606529474258423,1.0,0.92,0.001
670,0.3149079382419586,0.39590007066726685,1.0,0.92,0.001
671,0.31490132212638855,0.3957989513874054,1.0,0.92,0.001
672,0.31489667296409607,0.39603492617607117,1.0,0.92,0.001
673,0.3148915767669678,0.39602962136268616,1.0,0.92,0.001
674,0.3148871660232544,0.39578038454055786,1.0,0.92,0.001
675,0.31488096714019775,0.39581334590911865,1.0,0.92,0.001
676,0.3148748576641083,0.3960711658000946,1.0,0.92,0.001
677,0.3148702085018158,0.39604195952415466,1.0,0.92,0.001
678,0.31486502289772034,0.39580029249191284,1.0,0.92,0.001
679,0.31485989689826965,0.39582034945487976,1.0,0.92,0.001
680,0.31485500931739807,0.39607179164886475,1.0,0.92,0.001
681,0.3148498833179474,0.3960939347743988,1.0,0.92,0.001
682,0.31484541296958923,0.3958437740802765,1.0,0.92,0.001
683,0.3148399293422699,0.39583560824394226,1.0,0.92,0.001
684,0.3148343861103058,0.39593979716300964,1.0,0.92,0.001
685,0.3148280382156372,0.3959589898586273,1.0,0.92,0.001
686,0.31482386589050293,0.39590293169021606,1.0,0.92,0.001
687,0.31481844186782837,0.3959331810474396,1.0,0.92,0.001
688,0.31481367349624634,0.3960629999637604,1.0,0.92,0.001
689,0.31480857729911804,0.3959643244743347,1.0,0.92,0.001
690,0.3148038387298584,0.39592111110687256,1.0,0.92,0.001
691,0.3147991895675659,0.39593276381492615,1.0,0.92,0.001
692,0.31479397416114807,0.3960253894329071,1.0,0.92,0.001
693,0.3147891163825989,0.3960738778114319,1.0,0.92,0.001
694,0.3147847056388855,0.3959459960460663,1.0,0.92,0.001
695,0.3147795796394348,0.3960004448890686,1.0,0.92,0.001
696,0.31477534770965576,0.39591729640960693,1.0,0.92,0.001
697,0.3147706687450409,0.39591506123542786,1.0,0.92,0.001
698,0.3147658407688141,0.3960494101047516,1.0,0.92,0.001
699,0.3147616684436798,0.3959495425224304,1.0,0.92,0.001
700,0.31475672125816345,0.39572620391845703,1.0,0.92,0.001
701,0.31475216150283813,0.3959942162036896,1.0,0.92,0.001
702,0.3147461414337158,0.3960587978363037,1.0,0.92,0.001
703,0.3147430717945099,0.39587119221687317,1.0,0.92,0.001
704,0.3147387206554413,0.3958124816417694,1.0,0.92,0.001
705,0.31473249197006226,0.3959783911705017,1.0,0.92,0.001
706,0.3147279620170593,0.39602604508399963,1.0,0.92,0.001
707,0.31472378969192505,0.3959166705608368,1.0,0.92,0.001
708,0.31471869349479675,0.39586392045021057,1.0,0.92,0.001
709,0.31471413373947144,0.3959002196788788,1.0,0.92,0.001
710,0.3147093653678894,0.39600345492362976,1.0,0.92,0.001
711,0.3147052526473999,0.39588749408721924,1.0,0.92,0.001
712,0.3147001564502716,0.3958725333213806,1.0,0.92,0.001
713,0.31469595432281494,0.39593762159347534,1.0,0.92,0.001
714,0.3146916925907135,0.3960709869861603,1.0,0.92,0.001
715,0.31468743085861206,0.3959425985813141,1.0,0.92,0.001
716,0.3146831691265106,0.39588913321495056,1.0,0.92,0.001
717,0.31467926502227783,0.39599597454071045,1.0,0.92,0.001
718,0.31467482447624207,0.3959597051143646,1.0,0.92,0.001
719,0.3146703243255615,0.39580681920051575,1.0,0.92,0.001
720,0.3146660625934601,0.3957497477531433,1.0,0.92,0.001
721,0.31466230750083923,0.3958699405193329,1.0,0.92,0.001
722,0.3146580457687378,0.3958539068698883,1.0,0.92,0.001
723,0.3146534562110901,0.3957744836807251,1.0,0.92,0.001
724,0.3146494925022125,0.39593419432640076,1.0,0.92,0.001
725,0.31464529037475586,0.3960164189338684,1.0,0.92,0.001
726,0.31464114785194397,0.39597102999687195,1.0,0.92,0.001
727,0.31463709473609924,0.395753413438797,1.0,0.92,0.001
728,0.3146331310272217,0.3958592712879181,1.0,0.92,0.001
729,0.3146282732486725,0.3959701955318451,1.0,0.92,0.001
730,0.3146241307258606,0.3959939479827881,1.0,0.92,0.001
731,0.3146202564239502,0.3957881033420563,1.0,0.92,0.001
732,0.3146163523197174,0.39594095945358276,1.0,0.92,0.001
733,0.31461194157600403,0.39596498012542725,1.0,0.92,0.001
734,0.31460830569267273,0.39589518308639526,1.0,0.92,0.001
735,0.3146042227745056,0.395987868309021,1.0,0.92,0.001
736,0.3146001696586609,0.39593711495399475,1.0,0.92,0.001
737,0.3145970106124878,0.39590558409690857,1.0,0.92,0.001
738,0.31459304690361023,0.39585575461387634,1.0,0.92,0.001
739,0.3145887851715088,0.3958091735839844,1.0,0.92,0.001
740,0.3145846128463745,0.39589446783065796,1.0,0.92,0.001
741,0.3145807385444641,0.39586466550827026,1.0,0.92,0.001
742,0.31457746028900146,0.3958536386489868,1.0,0.92,0.001
743,0.3145739734172821,0.3959820866584778,1.0,0.92,0.001
744,0.3145694434642792,0.39589953422546387,1.0,0.92,0.001
745,0.31456583738327026,0.39586341381073,1.0,0.92,0.001
746,0.31456220149993896,0.39579230546951294,1.0,0.92,0.001
747,0.3145582675933838,0.3958755433559418,1.0,0.92,0.001
748,0.314554899930954,0.3960685431957245,1.0,0.92,0.001
749,0.31455090641975403,0.39600124955177307,1.0,0.92,0.001
750,0.31454649567604065,0.3959226608276367,1.0,0.92,0.001
751,0.3145429193973541,0.3959985673427582,1.0,0.92,0.001
752,0.31453895568847656,0.39596274495124817,1.0,0.92,0.001
753,0.314535528421402,0.3959353268146515,1.0,0.92,0.001
754,0.31453216075897217,0.39590728282928467,1.0,0.92,0.001
755,0.31452876329421997,0.3957272469997406,1.0,0.92,0.001
756,0.31452476978302,0.39596664905548096,1.0,0.92,0.001
757,0.3145212233066559,0.3960339426994324,1.0,0.92,0.001
758,0.3145180940628052,0.39585936069488525,1.0,0.92,0.001
759,0.3145142197608948,0.3958994746208191,1.0,0.92,0.001
760,0.31451016664505005,0.3959386944770813,1.0,0.92,0.001
761,0.3145069479942322,0.3959294259548187,1.0,0.92,0.001
762,0.314503014087677,0.39595913887023926,1.0,0.92,0.001
763,0.3144994080066681,0.3959081768989563,1.0,0.92,0.001
764,0.31449589133262634,0.3959060609340668,1.0,0.92,0.001
765,0.31449270248413086,0.39605292677879333,1.0,0.92,0.001
766,0.3144885301589966,0.39596274495124817,1.0,0.92,0.001
767,0.31448498368263245,0.39576220512390137,1.0,0.92,0.001
768,0.31448251008987427,0.3960743248462677,1.0,0.92,0.001
769,0.31447869539260864,0.3959563076496124,1.0,0.92,0.001
770,0.3144751787185669,0.3958226144313812,1.0,0.92,0.001
771,0.31447234749794006,0.39595887064933777,1.0,0.92,0.001
772,0.3144693672657013,0.3959556818008423,1.0,0.92,0.001
773,0.3144652247428894,0.3959747552871704,1.0,0.92,0.001
774,0.3144630491733551,0.3960655927658081,1.0,0.92,0.001
775,0.3144592344760895,0.3959614634513855,1.0,0.92,0.001
776,0.3144547641277313,0.39592280983924866,1.0,0.92,0.001
777,0.3144521415233612,0.39610958099365234,1.0,0.92,0.001
778,0.31444889307022095,0.3960941433906555,1.0,0.92,0.001
779,0.3144451081752777,0.39596444368362427,1.0,0.92,0.001
780,0.3144421875476837,0.39598795771598816,1.0,0.92,0.001
781,0.31443896889686584,0.3960195779800415,1.0,0.92,0.001
782,0.31443551182746887,0.3960649371147156,1.0,0.92,0.001
783,0.31443244218826294,0.39609241485595703,1.0,0.92,0.001
784,0.3144291937351227,0.3959955871105194,1.0,0.92,0.001
785,0.314425528049469,0.39588773250579834,1.0,0.92,0.001
786,0.3144229054450989,0.39610838890075684,1.0,0.92,0.001
787,0.3144199550151825,0.3959773778915405,1.0,0.92,0.001
788,0.31441646814346313,0.39599770307540894,1.0,0.92,0.001
789,0.31441330909729004,0.3960312008857727,1.0,0.92,0.001
790,0.31441017985343933,0.39610281586647034,1.0,0.92,0.001
791,0.3144069015979767,0.3961109220981598,1.0,0.92,0.001
792,0.3144042193889618,0.39611393213272095,1.0,0.92,0.001
793,0.3144015967845917,0.3959652781486511,1.0,0.92,0.001
794,0.3143974542617798,0.3960531949996948,1.0,0.92,0.001
795,0.31439465284347534,0.396122008562088,1.0,0.92,0.001
796,0.31439292430877686,0.39592447876930237,1.0,0.92,0.001
797,0.31438812613487244,0.3959256410598755,1.0,0.92,0.001
798,0.31438592076301575,0.3962777256965637,1.0,0.92,0.001
799,0.314383327960968,0.3961177468299866,1.0,0.92,0.001
800,0.3143799304962158,0.39612144231796265,1.0,0.92,0.001
801,0.31437671184539795,0.39621248841285706,1.0,0.92,0.001
802,0.3143744468688965,0.3961845338344574,1.0,0.92,0.001
803,0.3143712878227234,0.39632007479667664,1.0,0.92,0.001
804,0.3143681287765503,0.39624327421188354,1.0,0.92,0.001
805,0.31436529755592346,0.39604872465133667,1.0,0.92,0.001
806,0.31436213850975037,0.3960626721382141,1.0,0.92,0.001
807,0.314360111951828,0.3961394429206848,1.0,0.92,0.001
808,0.3143567442893982,0.39614737033843994,1.0,0.92,0.001
809,0.314352810382843,0.396165668964386,1.0,0.92,0.001
810,0.31435030698776245,0.3962075114250183,1.0,0.92,0.001
811,0.3143475651741028,0.39612480998039246,1.0,0.92,0.001
812,0.31434452533721924,0.3961653411388397,1.0,0.92,0.001
813,0.3143419325351715,0.3962037265300751,1.0,0.92,0.001
814,0.31433916091918945,0.39612674713134766,1.0,0.92,0.001
815,0.3143363296985626,0.3962511122226715,1.0,0.92,0.001
816,0.31433331966400146,0.39627376198768616,1.0,0.92,0.001
817,0.31433048844337463,0.3961789011955261,1.0,0.92,0.001
818,0.31432780623435974,0.3962707817554474,1.0,0.92,0.001
819,0.3143249452114105,0.3961503207683563,1.0,0.92,0.001
820,0.3143220543861389,0.3962218463420868,1.0,0.92,0.001
821,0.31432026624679565,0.3962593376636505,1.0,0.92,0.001
822,0.31431716680526733,0.39611026644706726,1.0,0.92,0.001
823,0.3143140375614166,0.39609256386756897,1.0,0.92,0.001
824,0.31431126594543457,0.3963207006454468,1.0,0.92,0.001
825,0.3143085539340973,0.39630356431007385,1.0,0.92,0.001
826,0.3143059015274048,0.39618366956710815,1.0,0.92,0.001
827,0.314303457736969,0.39614632725715637,1.0,0.92,0.001
828,0.31430086493492126,0.3962177336215973,1.0,0.92,0.001
829,0.31429827213287354,0.3962904214859009,1.0,0.92,0.001
830,0.3142954111099243,0.3962365984916687,1.0,0.92,0.001
831,0.31429287791252136,0.39624300599098206,1.0,0.92,0.001
832,0.3142898678779602,0.39630526304244995,1.0,0.92,0.001
833,0.31428757309913635,0.3963645100593567,1.0,0.92,0.001
834,0.31428471207618713,0.3963412344455719,1.0,0.92,0.001
835,0.3142821192741394,0.3962651491165161,1.0,0.92,0.001
836,0.3142799139022827,0.39624133706092834,1.0,0.92,0.001
837,0.3142772614955902,0.39636367559432983,1.0,0.92,0.001
838,0.31427422165870667,0.39646679162979126,1.0,0.92,0.001
839,0.31427201628685,0.3963125944137573,1.0,0.92,0.001
840,0.3142695724964142,0.39628106355667114,1.0,0.92,0.001
841,0.31426703929901123,0.3963564932346344,1.0,0.92,0.001
842,0.3142644464969635,0.3964524567127228,1.0,0.92,0.001
843,0.3142620027065277,0.3963841497898102,1.0,0.92,0.001
844,0.3142593204975128,0.3963434100151062,1.0,0.92,0.001
845,0.31425711512565613,0.3964247405529022,1.0,0.92,0.001
846,0.31425437331199646,0.3964006006717682,1.0,0.92,0.001
847,0.31425192952156067,0.39641255140304565,1.0,0.92,0.001
848,0.31424951553344727,0.3964957892894745,1.0,0.92,0.001
849,0.3142469525337219,0.39637917280197144,1.0,0.92,0.001
850,0.3142443895339966,0.3963773250579834,1.0,0.92,0.001
851,0.31424209475517273,0.3963804244995117,1.0,0.92,0.001
852,0.3142392933368683,0.39655205607414246,1.0,0.92,0.001
853,0.3142375946044922,0.3964346647262573,1.0,0.92,0.001
854,0.3142351806163788,0.39654701948165894,1.0,0.92,0.001
855,0.3142329156398773,0.3966224193572998,1.0,0.92,0.001
856,0.31423038244247437,0.39658355712890625,1.0,0.92,0.001
857,0.3142281472682953,0.3965577185153961,1.0,0.92,0.001
858,0.31422579288482666,0.39652878046035767,1.0,0.92,0.001
859,0.31422293186187744,0.39644816517829895,1.0,0.92,0.001
860,0.31422096490859985,0.39662855863571167,1.0,0.92,0.001
861,0.3142189681529999,0.3964880704879761,1.0,0.92,0.001
862,0.3142163157463074,0.39651569724082947,1.0,0.92,0.001
863,0.31421414017677307,0.39665982127189636,1.0,0.92,0.001
864,0.31421181559562683,0.3966890275478363,1.0,0.92,0.001
865,0.3142097592353821,0.396706759929657,1.0,0.92,0.001
866,0.31420662999153137,0.39659199118614197,1.0,0.92,0.001
867,0.314204603433609,0.3965674936771393,1.0,0.92,0.001
868,0.31420204043388367,0.3966449499130249,1.0,0.92,0.001
869,0.31419995427131653,0.39655816555023193,1.0,0.92,0.001
870,0.3141975700855255,0.3965822458267212,1.0,0.92,0.001
871,0.3141953945159912,0.3967132270336151,1.0,0.92,0.001
872,0.3141932785511017,0.39675000309944153,1.0,0.92,0.001
873,0.31419095396995544,0.39658957719802856,1.0,0.92,0.001
874,0.314189076423645,0.39655178785324097,1.0,0.92,0.001
875,0.31418654322624207,0.39666205644607544,1.0,0.92,0.001
876,0.3141844868659973,0.3966670632362366,1.0,0.92,0.001
877,0.31418219208717346,0.39667534828186035,1.0,0.92,0.001
878,0.31417956948280334,0.3966154158115387,1.0,0.92,0.001
879,0.31417757272720337,0.3967665433883667,1.0,0.92,0.001
880,0.31417542695999146,0.3967776596546173,1.0,0.92,0.001
881,0.3141734302043915,0.39671334624290466,1.0,0.92,0.001
882,0.31417134404182434,0.39665141701698303,1.0,0.92,0.001
883,0.314169317483902,0.3966902792453766,1.0,0.92,0.001
884,0.3141669034957886,0.3967027962207794,1.0,0.92,0.001
885,0.31416475772857666,0.39672568440437317,1.0,0.92,0.001
886,0.3141627609729767,0.39671772718429565,1.0,0.92,0.001
887,0.31416061520576477,0.3968304693698883,1.0,0.92,0.001
888,0.3141587972640991,0.39678072929382324,1.0,0.92,0.001
889,0.3141564130783081,0.3967898190021515,1.0,0.92,0.001
890,0.31415435671806335,0.39671531319618225,1.0,0.92,0.001
891,0.3141525983810425,0.39671239256858826,1.0,0.92,0.001
892,0.3141504228115082,0.39683568477630615,1.0,0.92,0.001
893,0.3141482174396515,0.3967854678630829,1.0,0.92,0.001
894,0.3141462504863739,0.39677539467811584,1.0,0.92,0.001
895,0.314144492149353,0.3968106806278229,1.0,0.92,0.001
896,0.3141416907310486,0.39681780338287354,1.0,0.92,0.001
897,0.3141396939754486,0.3968452215194702,1.0,0.92,0.001
898,0.31413790583610535,0.3966764211654663,1.0,0.92,0.001
899,0.3141353726387024,0.396809458732605,1.0,0.92,0.001
900,0.3141336441040039,0.39691588282585144,1.0,0.92,0.001
901,0.31413164734840393,0.39696842432022095,1.0,0.92,0.001
902,0.31412971019744873,0.39682120084762573,1.0,0.92,0.001
903,0.3141276240348816,0.3966516852378845,1.0,0.92,0.001
904,0.314126193523407,0.39662274718284607,1.0,0.92,0.001
905,0.3141244947910309,0.3970273733139038,1.0,0.92,0.001
906,0.3141222298145294,0.39692628383636475,1.0,0.92,0.001
907,0.3141199052333832,0.39688509702682495,1.0,0.92,0.001
908,0.31411808729171753,0.3969554603099823,1.0,0.92,0.001
909,0.31411588191986084,0.39675477147102356,1.0,0.92,0.001
910,0.31411367654800415,0.396852046251297,1.0,0.92,0.001
911,0.3141120672225952,0.3968685269355774,1.0,0.92,0.001
912,0.31411027908325195,0.3968452513217926,1.0,0.92,0.001
913,0.314108669757843,0.39698901772499084,1.0,0.92,0.001
914,0.3141063153743744,0.3972093164920807,1.0,0.92,0.001
915,0.3141050338745117,0.39687079191207886,1.0,0.92,0.001
916,0.31410300731658936,0.39678654074668884,1.0,0.92,0.001
917,0.3141002655029297,0.3968227803707123,1.0,0.92,0.001
918,0.31409913301467896,0.39673087000846863,1.0,0.92,0.001
919,0.31409692764282227,0.39704108238220215,1.0,0.92,0.001
920,0.31409454345703125,0.3970765769481659,1.0,0.92,0.001
921,0.3140929937362671,0.3967796564102173,1.0,0.92,0.001
922,0.31409114599227905,0.39698436856269836,1.0,0.92,0.001
923,0.3140890896320343,0.39709991216659546,1.0,0.92,0.001
924,0.31408727169036865,0.3968857228755951,1.0,0.92,0.001
925,0.3140854835510254,0.3968043625354767,1.0,0.92,0.001
926,0.31408339738845825,0.39688658714294434,1.0,0.92,0.001
927,0.3140817880630493,0.396840900182724,1.0,0.92,0.001
928,0.31407955288887024,0.39705097675323486,1.0,0.92,0.001
929,0.31407788395881653,0.397003710269928,1.0,0.92,0.001
930,0.31407618522644043,0.3969731628894806,1.0,0.92,0.001
931,0.3140742778778076,0.39703065156936646,1.0,0.92,0.001
932,0.31407222151756287,0.3971361815929413,1.0,0.92,0.001
933,0.31407052278518677,0.39706212282180786,1.0,0.92,0.001
934,0.3140687346458435,0.39702102541923523,1.0,0.92,0.001
935,0.31406691670417786,0.39693570137023926,1.0,0.92,0.001
936,0.31406545639038086,0.3970561921596527,1.0,0.92,0.001
937,0.3140636086463928,0.39706653356552124,1.0,0.92,0.001
938,0.3140621781349182,0.3969751000404358,1.0,0.92,0.001
939,0.3140600919723511,0.3970125615596771,1.0,0.92,0.001
940,0.3140580654144287,0.3971117436885834,1.0,0.92,0.001
941,0.3140564262866974,0.39708107709884644,1.0,0.92,0.001
942,0.3140546679496765,0.397003710269928,1.0,0.92,0.001
943,0.3140529990196228,0.39708179235458374,1.0,0.92,0.001
944,0.31405118107795715,0.39726486802101135,1.0,0.92,0.001
945,0.31404969096183777,0.3971406817436218,1.0,0.92,0.001
946,0.3140479624271393,0.39711445569992065,1.0,0.92,0.001
947,0.3140459358692169,0.3971005380153656,1.0,0.92,0.001
948,0.3140442669391632,0.39712077379226685,1.0,0.92,0.001
949,0.31404200196266174,0.3972748816013336,1.0,0.92,0.001
950,0.31404057145118713,0.3971850872039795,1.0,0.92,0.001
951,0.3140389621257782,0.397080659866333,1.0,0.92,0.001
952,0.3140372037887573,0.39717742800712585,1.0,0.92,0.001
953,0.31403544545173645,0.3972528874874115,1.0,0.92,0.001
954,0.31403401494026184,0.3972631096839905,1.0,0.92,0.001
955,0.31403207778930664,0.39726266264915466,1.0,0.92,0.001
956,0.31403037905693054,0.39720553159713745,1.0,0.92,0.001
957,0.3140285015106201,0.3971932530403137,1.0,0.92,0.001
958,0.31402724981307983,0.39730507135391235,1.0,0.92,0.001
959,0.3140257000923157,0.3973408639431,1.0,0.92,0.001
960,0.31402352452278137,0.39724239706993103,1.0,0.92,0.001
961,0.31402215361595154,0.3973384499549866,1.0,0.92,0.001
962,0.31402042508125305,0.39733123779296875,1.0,0.92,0.001
963,0.3140186369419098,0.3971945643424988,1.0,0.92,0.001
964,0.31401699781417847,0.3972485661506653,1.0,0.92,0.001
965,0.3140154182910919,0.39723533391952515,1.0,0.92,0.001
966,0.31401383876800537,0.39719468355178833,1.0,0.92,0.001
967,0.31401199102401733,0.3973197937011719,1.0,0.92,0.001
968,0.3140103220939636,0.3973034918308258,1.0,0.92,0.001
969,0.31400877237319946,0.3972800076007843,1.0,0.92,0.001
970,0.31400740146636963,0.3973395526409149,1.0,0.92,0.001
971,0.31400591135025024,0.3974081873893738,1.0,0.92,0.001
972,0.3140040636062622,0.39730697870254517,1.0,0.92,0.001
973,0.3140028119087219,0.3972727954387665,1.0,0.92,0.001
974,0.3140011131763458,0.3972599506378174,1.0,0.92,0.001
975,0.3139994144439697,0.3971773087978363,1.0,0.92,0.001
976,0.3139983117580414,0.39741647243499756,1.0,0.92,0.001
977,0.31399649381637573,0.39736637473106384,1.0,0.92,0.001
978,0.3139951825141907,0.3973928689956665,1.0,0.92,0.001
979,0.3139934539794922,0.3975345492362976,1.0,0.92,0.001
980,0.31399163603782654,0.3973751962184906,1.0,0.92,0.001
981,0.3139900267124176,0.3972588777542114,1.0,0.92,0.001
982,0.31398820877075195,0.39749783277511597,1.0,0.92,0.001
983,0.3139868378639221,0.39758795499801636,1.0,0.92,0.001
984,0.31398552656173706,0.39741313457489014,1.0,0.92,0.001
985,0.31398430466651917,0.3974078893661499,1.0,0.92,0.001
986,0.31398242712020874,0.3974851667881012,1.0,0.92,0.001
987,0.3139810860157013,0.3975714147090912,1.0,0.92,0.001
988,0.3139795958995819,0.3974774479866028,1.0,0.92,0.001
989,0.3139777183532715,0.3973424434661865,1.0,0.92,0.001
990,0.31397631764411926,0.3973865807056427,1.0,0.92,0.001
991,0.3139744997024536,0.39753666520118713,1.0,0.92,0.001
992,0.31397297978401184,0.39748460054397583,1.0,0.92,0.001
993,0.31397172808647156,0.397271990776062,1.0,0.92,0.001
994,0.3139702081680298,0.3974938988685608,1.0,0.92,0.001
995,0.3139687180519104,0.39774009585380554,1.0,0.92,0.001
996,0.31396719813346863,0.3976399302482605,1.0,0.92,0.001
997,0.31396567821502686,0.39743536710739136,1.0,0.92,0.001
998,0.31396418809890747,0.3974687159061432,1.0,0.92,0.001
999,0.3139628469944,0.397699236869812,1.0,0.92,0.001
1000,0.31396132707595825,0.39765313267707825,1.0,0.92,0.001
1001,0.3139597177505493,0.39750564098358154,1.0,0.92,0.001
1002,0.31395819783210754,0.39752620458602905,1.0,0.92,0.001
1003,0.3139567971229553,0.39755409955978394,1.0,0.92,0.001
1004,0.3139553666114807,0.3974533975124359,1.0,0.92,0.001
1005,0.3139539957046509,0.3975602686405182,1.0,0.92,0.001
1006,0.31395256519317627,0.39764663577079773,1.0,0.92,0.001
1007,0.3139509856700897,0.3977052569389343,1.0,0.92,0.001
1008,0.3139493763446808,0.39761221408843994,1.0,0.92,0.001
1009,0.31394821405410767,0.39759522676467896,1.0,0.92,0.001
1010,0.3139469623565674,0.3975641131401062,1.0,0.92,0.001
1011,0.31394538283348083,0.39753997325897217,1.0,0.92,0.001
1012,0.3139439523220062,0.39774632453918457,1.0,0.92,0.001
1013,0.31394273042678833,0.3976658582687378,1.0,0.92,0.001
1014,0.31394141912460327,0.3976479470729828,1.0,0.92,0.001
1015,0.3139398992061615,0.397553026676178,1.0,0.92,0.001
1016,0.3139386773109436,0.39766252040863037,1.0,0.92,0.001
1017,0.31393733620643616,0.3977181911468506,1.0,0.92,0.001
1018,0.3139360249042511,0.39772942662239075,1.0,0.92,0.001
1019,0.31393465399742126,0.39769208431243896,1.0,0.92,0.001
1020,0.31393325328826904,0.397732138633728,1.0,0.92,0.001
1021,0.31393155455589294,0.39774075150489807,1.0,0.92,0.001
1022,0.3139304518699646,0.3978233337402344,1.0,0.92,0.001
1023,0.31392940878868103,0.3978196084499359,1.0,0.92,0.001
1024,0.3139275312423706,0.39775189757347107,1.0,0.92,0.001
1025,0.3139263689517975,0.39764872193336487,1.0,0.92,0.001
1026,0.31392520666122437,0.39767158031463623,1.0,0.92,0.001
1027,0.3139236569404602,0.3977339565753937,1.0,0.92,0.001
1028,0.3139221966266632,0.3978671729564667,1.0,0.92,0.001
1029,0.31392133235931396,0.39778319001197815,1.0,0.92,0.001
1030,0.31391972303390503,0.39782458543777466,1.0,0.92,0.001
1031,0.3139183521270752,0.3979879319667816,1.0,0.92,0.001
1032,0.3139173090457916,0.39784157276153564,1.0,0.92,0.001
1033,0.3139156103134155,0.3977218568325043,1.0,0.92,0.001
1034,0.3139141798019409,0.3978539705276489,1.0,0.92,0.001
1035,0.3139130473136902,0.3979523479938507,1.0,0.92,0.001
1036,0.31391143798828125,0.39799821376800537,1.0,0.92,0.001
1037,0.31391027569770813,0.39802998304367065,1.0,0.92,0.001
1038,0.3139091432094574,0.3979337811470032,1.0,0.92,0.001
1039,0.3139077425003052,0.39800816774368286,1.0,0.92,0.001
1040,0.3139064610004425,0.39792388677597046,1.0,0.92,0.001
1041,0.31390494108200073,0.39787212014198303,1.0,0.92,0.001
1042,0.3139036297798157,0.3978833854198456,1.0,0.92,0.001
1043,0.31390246748924255,0.39801448583602905,1.0,0.92,0.001
1044,0.31390103697776794,0.3981161117553711,1.0,0.92,0.001
1045,0.3138996958732605,0.398052453994751,1.0,0.92,0.001
1046,0.31389838457107544,0.3979963958263397,1.0,0.92,0.001
1047,0.31389737129211426,0.3979056179523468,1.0,0.92,0.001
1048,0.3138960003852844,0.39798644185066223,1.0,0.92,0.001
1049,0.3138945698738098,0.39803215861320496,1.0,0.92,0.001
1050,0.31389322876930237,0.39793726801872253,1.0,0.92,0.001
1051,0.3138919770717621,0.39801326394081116,1.0,0.92,0.001
1052,0.31389084458351135,0.39807209372520447,1.0,0.92,0.001
1053,0.31388983130455017,0.3980195224285126,1.0,0.92,0.001
1054,0.3138885498046875,0.3979869782924652,1.0,0.92,0.001
1055,0.31388720870018005,0.3980998992919922,1.0,0.92,0.001
1056,0.3138861358165741,0.39800602197647095,1.0,0.92,0.001
1057,0.3138849437236786,0.3979903757572174,1.0,0.92,0.001
1058,0.3138834834098816,0.398050993680954,1.0,0.92,0.001
1059,0.31388238072395325,0.39811718463897705,1.0,0.92,0.001
1060,0.3138810992240906,0.3981049358844757,1.0,0.92,0.001
1061,0.3138800263404846,0.3981509804725647,1.0,0.92,0.001
1062,0.31387874484062195,0.39812296628952026,1.0,0.92,0.001
1063,0.31387752294540405,0.3981476128101349,1.0,0.92,0.001
1064,0.3138761818408966,0.3982953131198883,1.0,0.92,0.001
1065,0.3138749599456787,0.39825284481048584,1.0,0.92,0.001
1066,0.3138737976551056,0.39808231592178345,1.0,0.92,0.001
1067,0.31387266516685486,0.39811381697654724,1.0,0.92,0.001
1068,0.31387126445770264,0.39821717143058777,1.0,0.92,0.001
1069,0.31387007236480713,0.39821377396583557,1.0,0.92,0.001
1070,0.3138686418533325,0.39826956391334534,1.0,0.92,0.001
1071,0.3138675391674042,0.3982018530368805,1.0,0.92,0.001
1072,0.31386613845825195,0.3982681632041931,1.0,0.92,0.001
1073,0.31386494636535645,0.39837443828582764,1.0,0.92,0.001
1074,0.3138638436794281,0.3982941508293152,1.0,0.92,0.001
1075,0.31386250257492065,0.39827752113342285,1.0,0.92,0.001
1076,0.31386128067970276,0.39833301305770874,1.0,0.92,0.001
1077,0.3138602375984192,0.39830082654953003,1.0,0.92,0.001
1078,0.31385916471481323,0.39829209446907043,1.0,0.92,0.001
1079,0.31385788321495056,0.3983477056026459,1.0,0.92,0.001
1080,0.31385669112205505,0.3983425199985504,1.0,0.92,0.001
1081,0.31385573744773865,0.39832472801208496,1.0,0.92,0.001
1082,0.3138546347618103,0.398264080286026,1.0,0.92,0.001
1083,0.3138534724712372,0.3983846604824066,1.0,0.92,0.001
1084,0.3138526380062103,0.3982723653316498,1.0,0.92,0.001
1085,0.3138512074947357,0.3982943296432495,1.0,0.92,0.001
1086,0.3138500154018402,0.398335725069046,1.0,0.92,0.001
1087,0.31384900212287903,0.3984287977218628,1.0,0.92,0.001
1088,0.3138475716114044,0.3984116017818451,1.0,0.92,0.001
1089,0.3138464391231537,0.39832887053489685,1.0,0.92,0.001
1090,0.3138459324836731,0.39829230308532715,1.0,0.92,0.001
1091,0.31384432315826416,0.3984917104244232,1.0,0.92,0.001
1092,0.3138432800769806,0.39843544363975525,1.0,0.92,0.001
1093,0.3138422667980194,0.3983018100261688,1.0,0.92,0.001
1094,0.31384074687957764,0.3982948064804077,1.0,0.92,0.001
1095,0.3138398826122284,0.39835670590400696,1.0,0.92,0.001
1096,0.31383904814720154,0.39823591709136963,1.0,0.92,0.001
1097,0.3138379454612732,0.398293137550354,1.0,0.92,0.001
1098,0.31383657455444336,0.39843669533729553,1.0,0.92,0.001
1099,0.31383582949638367,0.39835190773010254,1.0,0.92,0.001
1100,0.31383436918258667,0.39844566583633423,1.0,0.92,0.001
1101,0.31383320689201355,0.39845016598701477,1.0,0.92,0.001
1102,0.3138321042060852,0.39841800928115845,1.0,0.92,0.001
1103,0.313831090927124,0.39834946393966675,1.0,0.92,0.001
1104,0.3138299584388733,0.3983733654022217,1.0,0.92,0.001
1105,0.31382906436920166,0.3983883261680603,1.0,0.92,0.001
1106,0.31382808089256287,0.39836084842681885,1.0,0.92,0.001
1107,0.31382668018341064,0.3984135091304779,1.0,0.92,0.001
1108,0.31382572650909424,0.39853382110595703,1.0,0.92,0.001
1109,0.3138244152069092,0.39854714274406433,1.0,0.92,0.001
1110,0.3138231337070465,0.3984869718551636,1.0,0.92,0.001
1111,0.3138219714164734,0.39835795760154724,1.0,0.92,0.001
1112,0.31382104754447937,0.3983851373195648,1.0,0.92,0.001
1113,0.31382012367248535,0.3984733521938324,1.0,0.92,0.001
1114,0.313819020986557,0.39860203862190247,1.0,0.92,0.001
1115,0.3138180375099182,0.39856892824172974,1.0,0.92,0.001
1116,0.3138168454170227,0.39851582050323486,1.0,0.92,0.001
1117,0.313815712928772,0.39857834577560425,1.0,0.92,0.001
1118,0.313814640045166,0.3985999822616577,1.0,0.92,0.001
1119,0.31381359696388245,0.3985583782196045,1.0,0.92,0.001
1120,0.31381264328956604,0.39844074845314026,1.0,0.92,0.001
1121,0.31381139159202576,0.39853808283805847,1.0,0.92,0.001
1122,0.31381043791770935,0.39866939187049866,1.0,0.92,0.001
1123,0.3138093054294586,0.39866524934768677,1.0,0.92,0.001
1124,0.3138082027435303,0.3985801339149475,1.0,0.92,0.001
1125,0.31380724906921387,0.3985668122768402,1.0,0.92,0.001
1126,0.3138059377670288,0.39864078164100647,1.0,0.92,0.001
1127,0.3138049840927124,0.39872342348098755,1.0,0.92,0.001
1128,0.31380409002304077,0.398661732673645,1.0,0.92,0.001
1129,0.31380295753479004,0.39854830503463745,1.0,0.92,0.001
1130,0.31380221247673035,0.39869046211242676,1.0,0.92,0.001
1131,0.31380122900009155,0.3987511694431305,1.0,0.92,0.001
1132,0.31380000710487366,0.3986873924732208,1.0,0.92,0.001
1133,0.31379884481430054,0.39866819977760315,1.0,0.92,0.001
1134,0.3137980103492737,0.39867714047431946,1.0,0.92,0.001
1135,0.3137969672679901,0.39876532554626465,1.0,0.92,0.001
1136,0.3137962222099304,0.3987402617931366,1.0,0.92,0.001
1137,0.31379497051239014,0.398784875869751,1.0,0.92,0.001
1138,0.31379425525665283,0.3987312614917755,1.0,0.92,0.001
1139,0.31379321217536926,0.39875373244285583,1.0,0.92,0.001
1140,0.31379225850105286,0.39884576201438904,1.0,0.92,0.001
1141,0.3137913644313812,0.3988294303417206,1.0,0.92,0.001
1142,0.31379029154777527,0.39872875809669495,1.0,0.92,0.001
1143,0.31378909945487976,0.39877259731292725,1.0,0.92,0.001
1144,0.31378841400146484,0.39880067110061646,1.0,0.92,0.001
1145,0.3137872815132141,0.3989265561103821,1.0,0.92,0.001
1146,0.3137865364551544,0.39887383580207825,1.0,0.92,0.001
1147,0.3137853145599365,0.3987623453140259,1.0,0.92,0.001
1148,0.31378400325775146,0.3988187909126282,1.0,0.92,0.001
1149,0.31378310918807983,0.3989223539829254,1.0,0.92,0.001
1150,0.31378209590911865,0.3989441990852356,1.0,0.92,0.001
1151,0.3137812912464142,0.3987802565097809,1.0,0.92,0.001
1152,0.3137800693511963,0.39876052737236023,1.0,0.92,0.001
1153,0.31377923488616943,0.39891883730888367,1.0,0.92,0.001
1154,0.3137783110141754,0.39899080991744995,1.0,0.92,0.001
1155,0.3137773275375366,0.3987506031990051,1.0,0.92,0.001
1156,0.3137768805027008,0.39882659912109375,1.0,0.92,0.001
1157,0.31377550959587097,0.3989734649658203,1.0,0.92,0.001
1158,0.31377503275871277,0.3989452123641968,1.0,0.92,0.001
1159,0.31377366185188293,0.39892101287841797,1.0,0.92,0.001
1160,0.31377312541007996,0.39903050661087036,1.0,0.92,0.001
1161,0.3137720227241516,0.3989242911338806,1.0,0.92,0.001
1162,0.3137708008289337,0.3989889621734619,1.0,0.92,0.001
1163,0.3137701749801636,0.39898329973220825,1.0,0.92,0.001
1164,0.3137689530849457,0.39899659156799316,1.0,0.92,0.001
1165,0.3137682378292084,0.3988918960094452,1.0,0.92,0.001
1166,0.31376713514328003,0.3989230692386627,1.0,0.92,0.001
1167,0.3137665092945099,0.39902523159980774,1.0,0.92,0.001
1168,0.31376543641090393,0.39910751581192017,1.0,0.92,0.001
1169,0.3137646019458771,0.39887940883636475,1.0,0.92,0.001
1170,0.3137636184692383,0.39890366792678833,1.0,0.92,0.001
1171,0.313762903213501,0.39906615018844604,1.0,0.92,0.001
1172,0.3137620985507965,0.39901283383369446,1.0,0.92,0.001
1173,0.31376099586486816,0.39898404479026794,1.0,0.92,0.001
1174,0.313759982585907,0.3990049660205841,1.0,0.92,0.001
1175,0.31375882029533386,0.3990177810192108,1.0,0.92,0.001
1176,0.3137580156326294,0.39903318881988525,1.0,0.92,0.001
1177,0.3137570917606354,0.39915451407432556,1.0,0.92,0.001
1178,0.3137560784816742,0.3991520404815674,1.0,0.92,0.001
1179,0.3137552738189697,0.3990331292152405,1.0,0.92,0.001
1180,0.3137543499469757,0.3991347551345825,1.0,0.92,0.001
1181,0.3137533366680145,0.39921560883522034,1.0,0.92,0.001
1182,0.3137527406215668,0.39911702275276184,1.0,0.92,0.001
1183,0.313751757144928,0.3990318179130554,1.0,0.92,0.001
1184,0.3137509822845459,0.39912155270576477,1.0,0.92,0.001
1185,0.31375011801719666,0.3992505967617035,1.0,0.92,0.001
1186,0.31374943256378174,0.3991585075855255,1.0,0.92,0.001
1187,0.3137485086917877,0.3991249203681946,1.0,0.92,0.001
1188,0.3137476444244385,0.39915698766708374,1.0,0.92,0.001
1189,0.31374669075012207,0.3992140293121338,1.0,0.92,0.001
1190,0.31374600529670715,0.3991389572620392,1.0,0.92,0.001
1191,0.3137452006340027,0.399061918258667,1.0,0.92,0.001
1192,0.31374430656433105,0.399118572473526,1.0,0.92,0.001
1193,0.3137437403202057,0.39911961555480957,1.0,0.92,0.001
1194,0.3137427270412445,0.39925068616867065,1.0,0.92,0.001
1195,0.3137417435646057,0.3992100656032562,1.0,0.92,0.001
1196,0.31374096870422363,0.39920175075531006,1.0,0.92,0.001
1197,0.313740074634552,0.399044007062912,1.0,0.92,0.001
1198,0.3137394189834595,0.3991917073726654,1.0,0.92,0.001
1199,0.31373852491378784,0.39921584725379944,1.0,0.92,0.001
1200,0.31373754143714905,0.3991551995277405,1.0,0.92,0.001
1201,0.3137364685535431,0.3992520272731781,1.0,0.92,0.001
1202,0.31373557448387146,0.3992953598499298,1.0,0.92,0.001
1203,0.31373491883277893,0.39932575821876526,1.0,0.92,0.001
1204,0.3137339651584625,0.3992988169193268,1.0,0.92,0.001
1205,0.3137332499027252,0.3993518352508545,1.0,0.92,0.001
1206,0.3137323260307312,0.39927738904953003,1.0,0.92,0.001
1207,0.31373172998428345,0.39928120374679565,1.0,0.92,0.001
1208,0.31373080611228943,0.399168461561203,1.0,0.92,0.001
1209,0.313729852437973,0.3991630971431732,1.0,0.92,0.001
1210,0.31372901797294617,0.3993358314037323,1.0,0.92,0.001
1211,0.3137281537055969,0.39949294924736023,1.0,0.92,0.001
1212,0.3137272894382477,0.3993942141532898,1.0,0.92,0.001
1213,0.3137264847755432,0.3993358612060547,1.0,0.92,0.001
1214,0.3137257695198059,0.3993060290813446,1.0,0.92,0.001
1215,0.3137248456478119,0.3993642330169678,1.0,0.92,0.001
1216,0.3137241005897522,0.39934277534484863,1.0,0.92,0.001
1217,0.3137231767177582,0.3992898166179657,1.0,0.92,0.001
1218,0.3137224018573761,0.3993840515613556,1.0,0.92,0.001
1219,0.31372156739234924,0.3993684649467468,1.0,0.92,0.001
1220,0.31372079253196716,0.39937838912010193,1.0,0.92,0.001
1221,0.3137199580669403,0.39935287833213806,1.0,0.92,0.001
1222,0.31371915340423584,0.39934074878692627,1.0,0.92,0.001
1223,0.31371834874153137,0.3993862271308899,1.0,0.92,0.001
1224,0.3137175440788269,0.39924484491348267,1.0,0.92,0.001
1225,0.31371667981147766,0.39936187863349915,1.0,0.92,0.001
1226,0.3137160837650299,0.39950060844421387,1.0,0.92,0.001
1227,0.31371527910232544,0.3993452787399292,1.0,0.92,0.001
1228,0.31371429562568665,0.39941197633743286,1.0,0.92,0.001
1229,0.3137137293815613,0.3994801640510559,1.0,0.92,0.001
1230,0.3137127757072449,0.39950627088546753,1.0,0.92,0.001
1231,0.313711941242218,0.399530291557312,1.0,0.92,0.001
1232,0.3137112855911255,0.3994407653808594,1.0,0.92,0.001
1233,0.31371060013771057,0.39937296509742737,1.0,0.92,0.001
1234,0.3137097954750061,0.3993975520133972,1.0,0.92,0.001
1235,0.313709020614624,0.399514764547348,1.0,0.92,0.001
1236,0.3137080669403076,0.39961865544319153,1.0,0.92,0.001
1237,0.3137074410915375,0.39944249391555786,1.0,0.92,0.001
1238,0.3137066960334778,0.39937838912010193,1.0,0.92,0.001
1239,0.3137058913707733,0.3995136022567749,1.0,0.92,0.001
1240,0.3137052655220032,0.39954566955566406,1.0,0.92,0.001
1241,0.31370437145233154,0.39956846833229065,1.0,0.92,0.001
1242,0.31370359659194946,0.399524986743927,1.0,0.92,0.001
1243,0.31370285153388977,0.399605393409729,1.0,0.92,0.001
1244,0.31370192766189575,0.39956533908843994,1.0,0.92,0.001
1245,0.313701331615448,0.3994370400905609,1.0,0.92,0.001
1246,0.31370049715042114,0.3995165526866913,1.0,0.92,0.001
1247,0.31369975209236145,0.39959898591041565,1.0,0.92,0.001
1248,0.3136989176273346,0.399627149105072,1.0,0.92,0.001
1249,0.3136981725692749,0.39957332611083984,1.0,0.92,0.001
1250,0.3136974275112152,0.3995600640773773,1.0,0.92,0.001
1251,0.31369689106941223,0.39958009123802185,1.0,0.92,0.001
1252,0.3136959969997406,0.39961883425712585,1.0,0.92,0.001
1253,0.3136953115463257,0.3997267484664917,1.0,0.92,0.001
1254,0.31369438767433167,0.39952796697616577,1.0,0.92,0.001
1255,0.3136935532093048,0.39945679903030396,1.0,0.92,0.001
1256,0.31369295716285706,0.3995922803878784,1.0,0.92,0.001
1257,0.31369200348854065,0.3996259272098541,1.0,0.92,0.001
1258,0.3136914074420929,0.39962565898895264,1.0,0.92,0.001
1259,0.31369081139564514,0.3996640741825104,1.0,0.92,0.001
1260,0.31369009613990784,0.39973995089530945,1.0,0.92,0.001
1261,0.3136894702911377,0.39975669980049133,1.0,0.92,0.001
1262,0.313688725233078,0.39960333704948425,1.0,0.92,0.001
1263,0.3136882483959198,0.39970606565475464,1.0,0.92,0.001
1264,0.31368735432624817,0.39977261424064636,1.0,0.92,0.001
1265,0.31368687748908997,0.3996604084968567,1.0,0.92,0.001
1266,0.3136860430240631,0.39965206384658813,1.0,0.92,0.001
1267,0.3136852979660034,0.3997170925140381,1.0,0.92,0.001
1268,0.31368473172187805,0.39965784549713135,1.0,0.92,0.001
1269,0.31368401646614075,0.39952918887138367,1.0,0.92,0.001
1270,0.31368330121040344,0.39966028928756714,1.0,0.92,0.001
1271,0.313682496547699,0.399875670671463,1.0,0.92,0.001
1272,0.3136816918849945,0.3997914791107178,1.0,0.92,0.001
1273,0.3136809170246124,0.3997850716114044,1.0,0.92,0.001
1274,0.3136803209781647,0.39982059597969055,1.0,0.92,0.001
1275,0.31367966532707214,0.3998253643512726,1.0,0.92,0.001
1276,0.3136790692806244,0.3997807800769806,1.0,0.92,0.001
1277,0.31367814540863037,0.3997443914413452,1.0,0.92,0.001
1278,0.3136773407459259,0.3997054696083069,1.0,0.92,0.001
1279,0.31367674469947815,0.39978712797164917,1.0,0.92,0.001
1280,0.31367623805999756,0.3998787999153137,1.0,0.92,0.001
1281,0.31367555260658264,0.3999302387237549,1.0,0.92,0.001
1282,0.3136747479438782,0.39976173639297485,1.0,0.92,0.001
1283,0.31367436051368713,0.3998144865036011,1.0,0.92,0.001
1284,0.3136734068393707,0.3997615873813629,1.0,0.92,0.001
1285,0.31367266178131104,0.39974185824394226,1.0,0.92,0.001
1286,0.3136722445487976,0.3998135030269623,1.0,0.92,0.001
1287,0.31367141008377075,0.39972808957099915,1.0,0.92,0.001
1288,0.313670814037323,0.3997734487056732,1.0,0.92,0.001
1289,0.3136700987815857,0.39987605810165405,1.0,0.92,0.001
1290,0.3136693835258484,0.39982831478118896,1.0,0.92,0.001
1291,0.3136688768863678,0.3998101055622101,1.0,0.92,0.001
1292,0.3136679530143738,0.399753600358963,1.0,0.92,0.001
1293,0.31366732716560364,0.39984405040740967,1.0,0.92,0.001
1294,0.31366682052612305,0.39985430240631104,1.0,0.92,0.001
1295,0.3136661648750305,0.39983880519866943,1.0,0.91,0.001
1296,0.31366556882858276,0.3997925817966461,1.0,0.92,0.001
1297,0.31366491317749023,0.3997762203216553,1.0,0.92,0.001
1298,0.31366413831710815,0.3998986482620239,1.0,0.92,0.001
1299,0.3136634826660156,0.3998873829841614,1.0,0.91,0.001
1300,0.31366291642189026,0.39995062351226807,1.0,0.92,0.001
1301,0.31366217136383057,0.3999105393886566,1.0,0.92,0.001
1302,0.3136616051197052,0.3999457061290741,1.0,0.92,0.001
1303,0.3136609196662903,0.3999319076538086,1.0,0.92,0.001
1304,0.31366026401519775,0.39990234375,1.0,0.92,0.001
1305,0.3136596381664276,0.39986908435821533,1.0,0.92,0.001
1306,0.31365886330604553,0.39991873502731323,1.0,0.92,0.001
1307,0.31365832686424255,0.3998892903327942,1.0,0.92,0.001
1308,0.31365758180618286,0.39992132782936096,1.0,0.92,0.001
1309,0.31365692615509033,0.39991119503974915,1.0,0.92,0.001
1310,0.3136563003063202,0.3998792767524719,1.0,0.92,0.001
1311,0.3136557340621948,0.3998364210128784,1.0,0.91,0.001
1312,0.31365516781806946,0.39988601207733154,1.0,0.92,0.001
1313,0.31365442276000977,0.4000755250453949,1.0,0.92,0.001
1314,0.3136537969112396,0.4001598358154297,1.0,0.92,0.001
1315,0.31365329027175903,0.39999133348464966,1.0,0.91,0.001
1316,0.3136526346206665,0.3998931646347046,1.0,0.91,0.001
1317,0.3136519193649292,0.39996010065078735,1.0,0.92,0.001
1318,0.31365126371383667,0.40002983808517456,1.0,0.92,0.001
1319,0.3136506676673889,0.39995133876800537,1.0,0.92,0.001
1320,0.31365010142326355,0.4000754654407501,1.0,0.91,0.001
1321,0.3136492371559143,0.40019187331199646,1.0,0.92,0.001
1322,0.31364893913269043,0.3999769687652588,1.0,0.91,0.001
1323,0.3136480450630188,0.40003594756126404,1.0,0.92,0.001
1324,0.31364747881889343,0.4001557528972626,1.0,0.92,0.001
1325,0.31364691257476807,0.4000825881958008,1.0,0.92,0.001
1326,0.313646137714386,0.40004828572273254,1.0,0.91,0.001
1327,0.313645601272583,0.4001031219959259,1.0,0.91,0.001
1328,0.31364500522613525,0.4000774323940277,1.0,0.92,0.001
1329,0.31364428997039795,0.4000590145587921,1.0,0.92,0.001
1330,0.3136439025402069,0.40014952421188354,1.0,0.91,0.001
1331,0.31364312767982483,0.4000767767429352,1.0,0.91,0.001
1332,0.313642680644989,0.39999017119407654,1.0,0.92,0.001
1333,0.31364208459854126,0.40003639459609985,1.0,0.91,0.001
1334,0.3136414587497711,0.40005362033843994,1.0,0.91,0.001
1335,0.313640832901001,0.4001239836215973,1.0,0.92,0.001
1336,0.3136403262615204,0.4001602828502655,1.0,0.92,0.001
1337,0.3136395215988159,0.4001396596431732,1.0,0.91,0.001
1338,0.31363898515701294,0.4001448154449463,1.0,0.91,0.001
1339,0.3136383295059204,0.40025120973587036,1.0,0.91,0.001
1340,0.31363770365715027,0.4002654254436493,1.0,0.91,0.001
1341,0.31363698840141296,0.40011370182037354,1.0,0.91,0.001
1342,0.3136363923549652,0.4001014828681946,1.0,0.91,0.001
1343,0.31363609433174133,0.40018805861473083,1.0,0.92,0.001
1344,0.31363534927368164,0.40027403831481934,1.0,0.91,0.001
1345,0.3136346936225891,0.40014201402664185,1.0,0.91,0.001
1346,0.31363415718078613,0.4000428020954132,1.0,0.91,0.001
1347,0.3136335611343384,0.40011587738990784,1.0,0.91,0.001
1348,0.3136330246925354,0.4003172814846039,1.0,0.91,0.001
1349,0.31363245844841003,0.4002411961555481,1.0,0.91,0.001
1350,0.31363192200660706,0.40005844831466675,1.0,0.91,0.001
1351,0.3136312961578369,0.4000667333602905,1.0,0.91,0.001
1352,0.31363075971603394,0.40018874406814575,1.0,0.92,0.001
1353,0.3136301040649414,0.4003148674964905,1.0,0.91,0.001
1354,0.31362950801849365,0.40019145607948303,1.0,0.91,0.001
1355,0.3136289119720459,0.4002175033092499,1.0,0.91,0.001
1356,0.3136284351348877,0.4002615809440613,1.0,0.91,0.001
1357,0.31362786889076233,0.4004291594028473,1.0,0.91,0.001
1358,0.3136274218559265,0.4002367854118347,1.0,0.91,0.001
1359,0.3136266767978668,0.4001115560531616,1.0,0.91,0.001
1360,0.31362611055374146,0.40022942423820496,1.0,0.91,0.001
1361,0.31362536549568176,0.4003854990005493,1.0,0.91,0.001
1362,0.31362488865852356,0.40033331513404846,1.0,0.91,0.001
1363,0.31362438201904297,0.40031516551971436,1.0,0.91,0.001
1364,0.3136236071586609,0.4002799093723297,1.0,0.91,0.001
1365,0.3136231303215027,0.40036341547966003,1.0,0.91,0.001
1366,0.3136225938796997,0.4004053473472595,1.0,0.91,0.001
1367,0.31362202763557434,0.4004429280757904,1.0,0.9,0.001
1368,0.3136216402053833,0.4003100097179413,1.0,0.91,0.001
1369,0.313620924949646,0.4004118740558624,1.0,0.91,0.001
1370,0.31362032890319824,0.40050098299980164,1.0,0.9,0.001
1371,0.3136197030544281,0.4003559350967407,1.0,0.91,0.001
1372,0.3136192262172699,0.40026962757110596,1.0,0.91,0.001
1373,0.3136186897754669,0.40025708079338074,1.0,0.91,0.001
1374,0.313618004322052,0.40029335021972656,1.0,0.91,0.001
1375,0.31361764669418335,0.4003464877605438,1.0,0.91,0.001
1376,0.31361693143844604,0.40036827325820923,1.0,0.91,0.001
1377,0.31361639499664307,0.4003083407878876,1.0,0.91,0.001
1378,0.31361591815948486,0.40039393305778503,1.0,0.91,0.001
1379,0.31361520290374756,0.4004102945327759,1.0,0.91,0.001
1380,0.31361475586891174,0.4005063772201538,1.0,0.9,0.001
1381,0.3136141896247864,0.40045440196990967,1.0,0.9,0.001
1382,0.3136136531829834,0.4003686010837555,1.0,0.91,0.001
1383,0.31361308693885803,0.40046191215515137,1.0,0.9,0.001
1384,0.3136126697063446,0.4005621075630188,1.0,0.9,0.001
1385,0.3136120140552521,0.40040576457977295,1.0,0.91,0.001
1386,0.3136114776134491,0.4004230201244354,1.0,0.91,0.001
1387,0.3136109709739685,0.40052780508995056,1.0,0.9,0.001
1388,0.31361034512519836,0.4005674123764038,1.0,0.9,0.001
1389,0.31360989809036255,0.40044453740119934,1.0,0.91,0.001
1390,0.31360936164855957,0.4005376398563385,1.0,0.91,0.001
1391,0.31360873579978943,0.4004806578159332,1.0,0.91,0.001
1392,0.31360822916030884,0.4004763066768646,1.0,0.9,0.001
1393,0.313607782125473,0.40045127272605896,1.0,0.9,0.001
1394,0.31360721588134766,0.40052688121795654,1.0,0.9,0.001
1395,0.3136066794395447,0.4005102515220642,1.0,0.9,0.001
1396,0.3136061728000641,0.40038037300109863,1.0,0.91,0.001
1397,0.3136056959629059,0.40045905113220215,1.0,0.9,0.001
1398,0.3136051595211029,0.4005460739135742,1.0,0.9,0.001
1399,0.313604474067688,0.40048861503601074,1.0,0.9,0.001
1400,0.31360411643981934,0.4004376530647278,1.0,0.91,0.001
1401,0.3136037588119507,0.40049904584884644,1.0,0.9,0.001
1402,0.31360313296318054,0.40050289034843445,1.0,0.9,0.001
1403,0.31360259652137756,0.40055128931999207,1.0,0.9,0.001
1404,0.31360211968421936,0.40060368180274963,1.0,0.9,0.001
1405,0.3136014938354492,0.4005812406539917,1.0,0.9,0.001
1406,0.3136011064052582,0.40044987201690674,1.0,0.91,0.001
1407,0.3136005103588104,0.40054869651794434,1.0,0.9,0.001
1408,0.31359994411468506,0.40058743953704834,1.0,0.9,0.001
1409,0.313599556684494,0.40049612522125244,1.0,0.91,0.001
1410,0.3135990500450134,0.40057989954948425,1.0,0.9,0.001
1411,0.31359848380088806,0.40063416957855225,1.0,0.9,0.001
1412,0.31359803676605225,0.40055277943611145,1.0,0.91,0.001
1413,0.31359758973121643,0.4004944860935211,1.0,0.9,0.001
1414,0.3135971128940582,0.40049052238464355,1.0,0.9,0.001
1415,0.3135964870452881,0.40068215131759644,1.0,0.9,0.001
1416,0.31359586119651794,0.4005824625492096,1.0,0.9,0.001
1417,0.31359541416168213,0.40055030584335327,1.0,0.9,0.001
1418,0.3135949969291687,0.40060707926750183,1.0,0.9,0.001
1419,0.3135943114757538,0.40061497688293457,1.0,0.9,0.001
1420,0.31359395384788513,0.4006350040435791,1.0,0.9,0.001
1421,0.31359341740608215,0.40065667033195496,1.0,0.9,0.001
1422,0.313592791557312,0.4006846249103546,1.0,0.9,0.001
1423,0.3135923445224762,0.4007318913936615,1.0,0.9,0.001
1424,0.313591867685318,0.4007742404937744,1.0,0.9,0.001
1425,0.313591331243515,0.4007258117198944,1.0,0.9,0.001
1426,0.3135909140110016,0.40073201060295105,1.0,0.9,0.001
1427,0.31359055638313293,0.40066444873809814,1.0,0.9,0.001
1428,0.31359001994132996,0.4007149040699005,1.0,0.9,0.001
1429,0.31358951330184937,0.40078654885292053,1.0,0.9,0.001
1430,0.3135891258716583,0.4007102847099304,1.0,0.9,0.001
1431,0.3135887086391449,0.4007541537284851,1.0,0.9,0.001
1432,0.31358811259269714,0.4007564187049866,1.0,0.9,0.001
1433,0.3135876953601837,0.40075191855430603,1.0,0.9,0.001
1434,0.31358712911605835,0.400765061378479,1.0,0.9,0.001
1435,0.31358665227890015,0.4007455110549927,1.0,0.9,0.001
1436,0.31358614563941956,0.40070000290870667,1.0,0.9,0.001
1437,0.3135857582092285,0.40072372555732727,1.0,0.9,0.001
1438,0.31358519196510315,0.4008103311061859,1.0,0.9,0.001
1439,0.3135848939418793,0.4008409380912781,1.0,0.9,0.001
1440,0.31358420848846436,0.4008811116218567,1.0,0.9,0.001
1441,0.3135838806629181,0.4008166790008545,1.0,0.9,0.001
1442,0.3135830760002136,0.4008152484893799,1.0,0.9,0.001
1443,0.31358277797698975,0.40083855390548706,1.0,0.9,0.001
1444,0.31358224153518677,0.40093839168548584,1.0,0.9,0.001
1445,0.31358179450035095,0.4009582996368408,1.0,0.9,0.001
1446,0.31358134746551514,0.4007708728313446,1.0,0.9,0.001
1447,0.3135806918144226,0.40070006251335144,1.0,0.9,0.001
1448,0.3135802149772644,0.4007680118083954,1.0,0.9,0.001
1449,0.3135797679424286,0.40089085698127747,1.0,0.9,0.001
1450,0.31357938051223755,0.40091976523399353,1.0,0.9,0.001
1451,0.31357890367507935,0.4008023738861084,1.0,0.9,0.001
1452,0.31357842683792114,0.4008275866508484,1.0,0.9,0.001
1453,0.3135780394077301,0.400916188955307,1.0,0.9,0.001
1454,0.3135775029659271,0.4009591042995453,1.0,0.9,0.001
1455,0.3135770559310913,0.4010419547557831,1.0,0.9,0.001
1456,0.3135766088962555,0.40093353390693665,1.0,0.9,0.001
1457,0.3135760426521301,0.4009144902229309,1.0,0.9,0.001
1458,0.3135756552219391,0.4008922874927521,1.0,0.9,0.001
1459,0.3135751783847809,0.40088382363319397,1.0,0.9,0.001
1460,0.31357479095458984,0.40091872215270996,1.0,0.9,0.001
1461,0.3135744035243988,0.4008638262748718,1.0,0.9,0.001
1462,0.31357383728027344,0.4008660614490509,1.0,0.9,0.001
1463,0.3135733902454376,0.4009743630886078,1.0,0.9,0.001
1464,0.31357288360595703,0.40090230107307434,1.0,0.9,0.001
1465,0.31357237696647644,0.4009033143520355,1.0,0.9,0.001
1466,0.31357190012931824,0.40097323060035706,1.0,0.9,0.001
1467,0.31357166171073914,0.4009567201137543,1.0,0.9,0.001
1468,0.3135712146759033,0.4009982943534851,1.0,0.9,0.001
1469,0.31357064843177795,0.4010002613067627,1.0,0.9,0.001
1470,0.3135702610015869,0.40088433027267456,1.0,0.9,0.001
1471,0.31356972455978394,0.4009048044681549,1.0,0.9,0.001
1472,0.3135693073272705,0.4010028541088104,1.0,0.9,0.001
1473,0.31356877088546753,0.4009626507759094,1.0,0.9,0.001
1474,0.3135683238506317,0.40085482597351074,1.0,0.9,0.001
1475,0.31356796622276306,0.40099388360977173,1.0,0.9,0.001
1476,0.31356745958328247,0.4011443257331848,1.0,0.9,0.001
1477,0.3135671317577362,0.40094226598739624,1.0,0.9,0.001
1478,0.31356677412986755,0.40104466676712036,1.0,0.9,0.001
1479,0.3135662376880646,0.4011591672897339,1.0,0.9,0.001
1480,0.31356602907180786,0.4008985459804535,1.0,0.9,0.001
1481,0.31356531381607056,0.400865375995636,1.0,0.9,0.001
1482,0.31356504559516907,0.4010283946990967,1.0,0.9,0.001
1483,0.3135644793510437,0.4009656012058258,1.0,0.9,0.001
1484,0.3135640621185303,0.40093696117401123,1.0,0.9,0.001
1485,0.31356361508369446,0.40101158618927,1.0,0.9,0.001
1486,0.31356313824653625,0.40105900168418884,1.0,0.9,0.001
1487,0.3135627508163452,0.40106451511383057,1.0,0.9,0.001
1488,0.31356218457221985,0.401081383228302,1.0,0.9,0.001
1489,0.31356194615364075,0.40104061365127563,1.0,0.9,0.001
1490,0.3135613203048706,0.4010663330554962,1.0,0.9,0.001
1491,0.3135609030723572,0.4010618329048157,1.0,0.9,0.001
1492,0.3135603964328766,0.400999516248703,1.0,0.9,0.001
1493,0.3135600984096527,0.4010302424430847,1.0,0.9,0.001
1494,0.3135596215724945,0.4010700285434723,1.0,0.9,0.001
1495,0.3135591447353363,0.40103843808174133,1.0,0.9,0.001
1496,0.31355875730514526,0.40103772282600403,1.0,0.9,0.001
1497,0.3135583996772766,0.4010518789291382,1.0,0.9,0.001
1498,0.3135579228401184,0.4011104106903076,1.0,0.9,0.001
1499,0.3135574460029602,0.40113866329193115,1.0,0.9,0.001
1500,0.313556969165802,0.40104958415031433,1.0,0.9,0.001
1501,0.3135567009449005,0.4010389447212219,1.0,0.9,0.001
1502,0.3135561943054199,0.401051789522171,1.0,0.9,0.001
1503,0.3135557174682617,0.4010539948940277,1.0,0.9,0.001
1504,0.31355535984039307,0.40110495686531067,1.0,0.9,0.001
1505,0.31355491280555725,0.4010562598705292,1.0,0.9,0.001
1506,0.31355464458465576,0.4010746479034424,1.0,0.9,0.001
1507,0.31355422735214233,0.40111464262008667,1.0,0.9,0.001
1508,0.31355369091033936,0.40106701850891113,1.0,0.9,0.001
1509,0.3135533034801483,0.40096428990364075,1.0,0.9,0.001
1510,0.3135528862476349,0.4010772407054901,1.0,0.9,0.001
1511,0.31355249881744385,0.4011417329311371,1.0,0.9,0.001
1512,0.3135520815849304,0.40101364254951477,1.0,0.9,0.001
1513,0.31355172395706177,0.40099698305130005,1.0,0.9,0.001
1514,0.3135510981082916,0.4011077880859375,1.0,0.9,0.001
1515,0.3135509490966797,0.40097105503082275,1.0,0.9,0.001
1516,0.31355032324790955,0.40106314420700073,1.0,0.9,0.001
1517,0.3135499954223633,0.40118709206581116,1.0,0.9,0.001
1518,0.3135494887828827,0.4011344015598297,1.0,0.9,0.001
1519,0.3135492205619812,0.400995135307312,1.0,0.9,0.001
1520,0.3135489225387573,0.4010458290576935,1.0,0.9,0.001
1521,0.31354838609695435,0.4011744260787964,1.0,0.9,0.001
1522,0.3135479986667633,0.40115031599998474,1.0,0.9,0.001
1523,0.3135475218296051,0.4010419547557831,1.0,0.9,0.001
1524,0.3135472238063812,0.40100884437561035,1.0,0.9,0.001
1525,0.31354671716690063,0.4010111093521118,1.0,0.9,0.001
1526,0.3135463297367096,0.4010830819606781,1.0,0.9,0.001
1527,0.31354600191116333,0.4011691212654114,1.0,0.9,0.001
1528,0.31354546546936035,0.4011906385421753,1.0,0.9,0.001
1529,0.31354498863220215,0.4011514186859131,1.0,0.9,0.001
1530,0.31354475021362305,0.4011928141117096,1.0,0.9,0.001
1531,0.3135443925857544,0.40114066004753113,1.0,0.9,0.001
1532,0.31354403495788574,0.40113571286201477,1.0,0.9,0.001
1533,0.3135436177253723,0.4010663330554962,1.0,0.9,0.001
1534,0.3135432004928589,0.40108737349510193,1.0,0.9,0.001
1535,0.31354275345802307,0.40117835998535156,1.0,0.9,0.001
1536,0.31354233622550964,0.40124520659446716,1.0,0.9,0.001
1537,0.313541978597641,0.40130168199539185,1.0,0.9,0.001
1538,0.3135416507720947,0.4013432264328003,1.0,0.9,0.001
1539,0.3135412931442261,0.40129244327545166,1.0,0.9,0.001
1540,0.3135406970977783,0.4012548327445984,1.0,0.9,0.001
1541,0.31354033946990967,0.4012148678302765,1.0,0.9,0.001
1542,0.3135400116443634,0.4012329876422882,1.0,0.9,0.001
1543,0.31353959441185,0.40121424198150635,1.0,0.9,0.001
1544,0.31353914737701416,0.40124985575675964,1.0,0.9,0.001
1545,0.31353873014450073,0.401273638010025,1.0,0.9,0.001
1546,0.3135383129119873,0.40131691098213196,1.0,0.9,0.001
1547,0.3135377764701843,0.4012730121612549,1.0,0.9,0.001
1548,0.31353750824928284,0.40133601427078247,1.0,0.9,0.001
1549,0.3135371208190918,0.40131884813308716,1.0,0.9,0.001
1550,0.3135368824005127,0.4013410210609436,1.0,0.9,0.001
1551,0.31353646516799927,0.40127235651016235,1.0,0.9,0.001
1552,0.31353604793548584,0.40122881531715393,1.0,0.9,0.001
1553,0.3135356605052948,0.40123599767684937,1.0,0.9,0.001
1554,0.31353524327278137,0.40124183893203735,1.0,0.9,0.001
1555,0.31353485584259033,0.40132278203964233,1.0,0.9,0.001
1556,0.3135344684123993,0.40139129757881165,1.0,0.9,0.001
1557,0.3135340213775635,0.4014306664466858,1.0,0.9,0.001
1558,0.3135337233543396,0.4013337194919586,1.0,0.9,0.001
1559,0.3135334253311157,0.4013374447822571,1.0,0.9,0.001
1560,0.3135330080986023,0.4013410210609436,1.0,0.9,0.001
1561,0.31353265047073364,0.4013017416000366,1.0,0.9,0.001
1562,0.313532292842865,0.40130969882011414,1.0,0.9,0.001
1563,0.3135318458080292,0.40129634737968445,1.0,0.9,0.001
1564,0.3135315477848053,0.40134745836257935,1.0,0.9,0.001
1565,0.3135310709476471,0.40139007568359375,1.0,0.9,0.001
1566,0.31353071331977844,0.40139874815940857,1.0,0.9,0.001
1567,0.3135303556919098,0.4013904929161072,1.0,0.9,0.001
1568,0.3135298788547516,0.4012492895126343,1.0,0.9,0.001
1569,0.3135296404361725,0.40131813287734985,1.0,0.9,0.001
1570,0.3135291635990143,0.40145114064216614,1.0,0.9,0.001
1571,0.31352898478507996,0.40138357877731323,1.0,0.9,0.001
1572,0.3135286271572113,0.40130850672721863,1.0,0.9,0.001
1573,0.3135281503200531,0.4013274312019348,1.0,0.9,0.001
1574,0.31352776288986206,0.40146100521087646,1.0,0.9,0.001
1575,0.313527375459671,0.4015452563762665,1.0,0.9,0.001
1576,0.3135271370410919,0.4014861285686493,1.0,0.9,0.001
1577,0.3135266602039337,0.40133801102638245,1.0,0.9,0.001
1578,0.3135262727737427,0.4014005959033966,1.0,0.9,0.001
1579,0.3135259747505188,0.40149039030075073,1.0,0.9,0.001
1580,0.3135256767272949,0.4014326333999634,1.0,0.9,0.001
1581,0.3135252892971039,0.4014133810997009,1.0,0.9,0.001
1582,0.31352487206459045,0.4013509750366211,1.0,0.9,0.001
1583,0.31352469325065613,0.4014355540275574,1.0,0.9,0.001
1584,0.3135242760181427,0.4014469385147095,1.0,0.9,0.001
1585,0.3135239779949188,0.40134739875793457,1.0,0.9,0.001
1586,0.3135235607624054,0.4012508690357208,1.0,0.9,0.001
1587,0.31352320313453674,0.40129753947257996,1.0,0.9,0.001
1588,0.31352296471595764,0.4014708697795868,1.0,0.9,0.001
1589,0.3135225772857666,0.4015572667121887,1.0,0.9,0.001
1590,0.3135221302509308,0.40148261189460754,1.0,0.9,0.001
1591,0.3135218024253845,0.401241660118103,1.0,0.9,0.001
1592,0.31352150440216064,0.4012260138988495,1.0,0.9,0.001
1593,0.31352120637893677,0.4013849198818207,1.0,0.9,0.001
1594,0.3135206699371338,0.4014769494533539,1.0,0.9,0.001
1595,0.31352028250694275,0.4014565944671631,1.0,0.9,0.001
1596,0.31351998448371887,0.4013742506504059,1.0,0.9,0.001
1597,0.31351956725120544,0.40136611461639404,1.0,0.9,0.001
1598,0.31351935863494873,0.4013611674308777,1.0,0.9,0.001
1599,0.3135188817977905,0.401357501745224,1.0,0.9,0.001
1600,0.3135185241699219,0.4014747142791748,1.0,0.9,0.001
1601,0.3135182857513428,0.4014570713043213,1.0,0.9,0.001
1602,0.31351786851882935,0.40146297216415405,1.0,0.9,0.001
1603,0.3135174810886383,0.40149322152137756,1.0,0.9,0.001
1604,0.3135172128677368,0.4014395773410797,1.0,0.9,0.001
1605,0.31351685523986816,0.4012806713581085,1.0,0.9,0.001
1606,0.3135165870189667,0.40135592222213745,1.0,0.9,0.001
1607,0.313516229391098,0.4015735983848572,1.0,0.9,0.001
1608,0.31351590156555176,0.40159493684768677,1.0,0.9,0.001
1609,0.3135155439376831,0.4014950692653656,1.0,0.9,0.001
1610,0.313515305519104,0.40146559476852417,1.0,0.9,0.001
1611,0.31351494789123535,0.4015704393386841,1.0,0.9,0.001
1612,0.3135145306587219,0.4014896750450134,1.0,0.9,0.001
1613,0.31351417303085327,0.40150725841522217,1.0,0.9,0.001
1614,0.31351378560066223,0.40152549743652344,1.0,0.9,0.001
1615,0.31351351737976074,0.40139931440353394,1.0,0.9,0.001
1616,0.3135130703449249,0.4014282524585724,1.0,0.9,0.001
1617,0.31351280212402344,0.4015381932258606,1.0,0.9,0.001
1618,0.3135124146938324,0.40159597992897034,1.0,0.9,0.001
1619,0.3135121464729309,0.40150943398475647,1.0,0.9,0.001
1620,0.3135117292404175,0.40155357122421265,1.0,0.9,0.001
1621,0.31351134181022644,0.40164297819137573,1.0,0.9,0.001
1622,0.31351107358932495,0.40165501832962036,1.0,0.9,0.001
1623,0.3135107159614563,0.4016377925872803,1.0,0.9,0.001
1624,0.3135105073451996,0.4016948342323303,1.0,0.9,0.001
1625,0.31351011991500854,0.4016823172569275,1.0,0.9,0.001
1626,0.3135097622871399,0.40157169103622437,1.0,0.9,0.001
1627,0.3135095238685608,0.40160128474235535,1.0,0.9,0.001
1628,0.313509076833725,0.4015994668006897,1.0,0.9,0.001
1629,0.31350868940353394,0.4015880823135376,1.0,0.9,0.001
1630,0.3135085105895996,0.4015910029411316,1.0,0.9,0.001
1631,0.31350815296173096,0.4015864133834839,1.0,0.9,0.001
1632,0.3135078251361847,0.4017108678817749,1.0,0.9,0.001
1633,0.31350746750831604,0.4016664922237396,1.0,0.9,0.001
1634,0.3135070502758026,0.40156909823417664,1.0,0.9,0.001
1635,0.3135067820549011,0.40156322717666626,1.0,0.9,0.001
1636,0.31350642442703247,0.40165960788726807,1.0,0.9,0.001
1637,0.31350600719451904,0.4016975164413452,1.0,0.9,0.001
1638,0.3135058283805847,0.4017369747161865,1.0,0.9,0.001
1639,0.3135055601596832,0.40170973539352417,1.0,0.9,0.001
1640,0.3135052025318146,0.4016548991203308,1.0,0.9,0.001
1641,0.3135048747062683,0.40160125494003296,1.0,0.9,0.001
1642,0.31350454688072205,0.401564359664917,1.0,0.9,0.001
1643,0.31350424885749817,0.4017302989959717,1.0,0.9,0.001
1644,0.31350386142730713,0.4017238914966583,1.0,0.9,0.001
1645,0.313503623008728,0.4016854465007782,1.0,0.9,0.001
1646,0.3135031461715698,0.4016425609588623,1.0,0.9,0.001
1647,0.3135029673576355,0.4016479253768921,1.0,0.9,0.001
1648,0.313502699136734,0.4017143249511719,1.0,0.9,0.001
1649,0.3135022819042206,0.4018109142780304,1.0,0.9,0.001
1650,0.31350192427635193,0.4018467664718628,1.0,0.9,0.001
1651,0.3135015666484833,0.40177127718925476,1.0,0.9,0.001
1652,0.31350138783454895,0.4016681909561157,1.0,0.9,0.001
1653,0.3135010004043579,0.4016586244106293,1.0,0.9,0.001
1654,0.31350064277648926,0.40180274844169617,1.0,0.9,0.001
1655,0.313500314950943,0.4018641412258148,1.0,0.9,0.001
1656,0.3135000169277191,0.40172481536865234,1.0,0.9,0.001
1657,0.3134995698928833,0.40163126587867737,1.0,0.9,0.001
1658,0.3134993314743042,0.40170106291770935,1.0,0.9,0.001
1659,0.31349900364875793,0.40182268619537354,1.0,0.9,0.001
1660,0.3134986162185669,0.4018681049346924,1.0,0.9,0.001
1661,0.31349825859069824,0.4018239676952362,1.0,0.9,0.001
1662,0.3134980797767639,0.40178585052490234,1.0,0.9,0.001
1663,0.3134976625442505,0.40175244212150574,1.0,0.9,0.001
1664,0.313497394323349,0.40170884132385254,1.0,0.9,0.001
1665,0.3134971559047699,0.40172117948532104,1.0,0.9,0.001
1666,0.31349682807922363,0.40188848972320557,1.0,0.9,0.001
1667,0.31349650025367737,0.4018785059452057,1.0,0.9,0.001
1668,0.31349605321884155,0.4018462002277374,1.0,0.9,0.001
1669,0.31349581480026245,0.40181148052215576,1.0,0.9,0.001
1670,0.31349554657936096,0.401833176612854,1.0,0.9,0.001
1671,0.31349530816078186,0.4018736183643341,1.0,0.9,0.001
1672,0.3134949803352356,0.40184688568115234,1.0,0.9,0.001
1673,0.31349462270736694,0.40188145637512207,1.0,0.9,0.001
1674,0.3134942948818207,0.40186941623687744,1.0,0.9,0.001
1675,0.313493937253952,0.40186211466789246,1.0,0.9,0.001
1676,0.31349360942840576,0.4019186496734619,1.0,0.9,0.001
1677,0.3134933412075043,0.4020063877105713,1.0,0.9,0.001
1678,0.3134930729866028,0.4019167721271515,1.0,0.9,0.001
1679,0.3134928047657013,0.40190476179122925,1.0,0.9,0.001
1680,0.3134925365447998,0.4018031656742096,1.0,0.9,0.001
1681,0.31349217891693115,0.4017574191093445,1.0,0.9,0.001
1682,0.31349194049835205,0.4017850160598755,1.0,0.9,0.001
1683,0.3134916424751282,0.4019485414028168,1.0,0.9,0.001
1684,0.3134912848472595,0.40204429626464844,1.0,0.9,0.001
1685,0.31349095702171326,0.40187889337539673,1.0,0.9,0.001
1686,0.31349074840545654,0.4018841087818146,1.0,0.9,0.001
1687,0.31349027156829834,0.4019985496997833,1.0,0.9,0.001
1688,0.31348997354507446,0.40199610590934753,1.0,0.9,0.001
1689,0.3134896457195282,0.4019961953163147,1.0,0.9,0.001
1690,0.3134894073009491,0.40192559361457825,1.0,0.9,0.001
1691,0.31348904967308044,0.4019862413406372,1.0,0.9,0.001
1692,0.31348878145217896,0.40198588371276855,1.0,0.9,0.001
1693,0.3134883940219879,0.40203991532325745,1.0,0.9,0.001
1694,0.313488245010376,0.40205100178718567,1.0,0.9,0.001
1695,0.3134879171848297,0.4020169973373413,1.0,0.9,0.001
1696,0.3134876489639282,0.402057945728302,1.0,0.9,0.001
1697,0.31348729133605957,0.4019995927810669,1.0,0.9,0.001
1698,0.3134869635105133,0.40206390619277954,1.0,0.9,0.001
1699,0.3134867548942566,0.40203720331192017,1.0,0.9,0.001
1700,0.31348639726638794,0.4020349085330963,1.0,0.9,0.001
1701,0.313486248254776,0.4019656479358673,1.0,0.9,0.001
1702,0.3134859800338745,0.40201714634895325,1.0,0.9,0.001
1703,0.31348565220832825,0.40207579731941223,1.0,0.9,0.001
1704,0.31348544359207153,0.4019523859024048,1.0,0.9,0.001
1705,0.31348514556884766,0.4020802974700928,1.0,0.9,0.001
1706,0.31348487734794617,0.40216246247291565,1.0,0.9,0.001
1707,0.3134845793247223,0.4020991623401642,1.0,0.9,0.001
1708,0.31348422169685364,0.40192845463752747,1.0,0.9,0.001
1709,0.3134838938713074,0.4019946753978729,1.0,0.9,0.001
1710,0.3134835660457611,0.4021338224411011,1.0,0.9,0.001
1711,0.3134833872318268,0.40205687284469604,1.0,0.9,0.001
1712,0.31348302960395813,0.40208491683006287,1.0,0.9,0.001
1713,0.31348279118537903,0.4019990563392639,1.0,0.9,0.001
1714,0.31348249316215515,0.4019682705402374,1.0,0.9,0.001
1715,0.3134821951389313,0.40206730365753174,1.0,0.9,0.001
1716,0.3134818375110626,0.4021439850330353,1.0,0.9,0.001
1717,0.31348156929016113,0.40205493569374084,1.0,0.9,0.001
1718,0.31348127126693726,0.40199071168899536,1.0,0.9,0.001
1719,0.31348100304603577,0.40201297402381897,1.0,0.9,0.001
1720,0.3134807348251343,0.4021155536174774,1.0,0.9,0.001
1721,0.313480406999588,0.4019823968410492,1.0,0.9,0.001
1722,0.3134801387786865,0.40203702449798584,1.0,0.9,0.001
1723,0.31347984075546265,0.40211382508277893,1.0,0.9,0.001
1724,0.31347954273223877,0.40202081203460693,1.0,0.9,0.001
1725,0.3134792745113373,0.40206271409988403,1.0,0.9,0.001
1726,0.3134790360927582,0.4021475315093994,1.0,0.9,0.001
1727,0.3134785592556,0.4021640717983246,1.0,0.9,0.001
1728,0.3134784400463104,0.40198177099227905,1.0,0.9,0.001
1729,0.31347811222076416,0.40212276577949524,1.0,0.9,0.001
1730,0.31347784399986267,0.4021756052970886,1.0,0.9,0.001
1731,0.31347760558128357,0.4021531939506531,1.0,0.9,0.001
1732,0.3134773075580597,0.40217217803001404,1.0,0.9,0.001
1733,0.31347692012786865,0.4022088944911957,1.0,0.9,0.001
1734,0.3134768009185791,0.4020940065383911,1.0,0.9,0.001
1735,0.3134765326976776,0.4020792245864868,1.0,0.9,0.001
1736,0.3134762942790985,0.40215983986854553,1.0,0.9,0.001
1737,0.3134758770465851,0.40205052495002747,1.0,0.9,0.001
1738,0.31347572803497314,0.4019860327243805,1.0,0.9,0.001
1739,0.3134754002094269,0.4021499752998352,1.0,0.9,0.001
1740,0.3134750723838806,0.40226760506629944,1.0,0.9,0.001
1741,0.3134748637676239,0.402201771736145,1.0,0.9,0.001
1742,0.3134745955467224,0.4019435942173004,1.0,0.9,0.001
1743,0.3134743869304657,0.402034729719162,1.0,0.9,0.001
1744,0.3134740889072418,0.4022332727909088,1.0,0.9,0.001
1745,0.31347379088401794,0.40219834446907043,1.0,0.9,0.001
1746,0.31347358226776123,0.40208011865615845,1.0,0.9,0.001
1747,0.31347328424453735,0.40217000246047974,1.0,0.9,0.001
1748,0.31347304582595825,0.4022676348686218,1.0,0.9,0.001
1749,0.31347283720970154,0.4022471606731415,1.0,0.9,0.001
1750,0.3134724199771881,0.40224263072013855,1.0,0.9,0.001
1751,0.313472181558609,0.4022456705570221,1.0,0.9,0.001
1752,0.3134719133377075,0.40227797627449036,1.0,0.9,0.0007937005259840996
1753,0.31347164511680603,0.40213218331336975,1.0,0.9,0.0007937005259840996
1754,0.3134714365005493,0.40211665630340576,1.0,0.9,0.0007937005259840996
1755,0.3134712278842926,0.40219801664352417,1.0,0.9,0.0007937005259840996
1756,0.3134709894657135,0.40228164196014404,1.0,0.9,0.0007937005259840996
1757,0.3134707510471344,0.40226951241493225,1.0,0.9,0.0007937005259840996
1758,0.3134705424308777,0.4021545648574829,1.0,0.9,0.0007937005259840996
1759,0.3134702742099762,0.4021279811859131,1.0,0.9,0.0007937005259840996
1760,0.3134702444076538,0.4022282361984253,1.0,0.9,0.0007937005259840996
1761,0.31346991658210754,0.4023144543170929,1.0,0.9,0.0007937005259840996
1762,0.313469797372818,0.40232667326927185,1.0,0.9,0.0007937005259840996
1763,0.31346964836120605,0.40229296684265137,1.0,0.9,0.0007937005259840996
1764,0.31346940994262695,0.4022546112537384,1.0,0.9,0.0007937005259840996
1765,0.31346917152404785,0.4022654592990875,1.0,0.9,0.0007937005259840996
1766,0.3134690523147583,0.4023086130619049,1.0,0.9,0.0007937005259840996
1767,0.3134687542915344,0.4022487699985504,1.0,0.9,0.0007937005259840996
1768,0.3134685754776001,0.40227577090263367,1.0,0.9,0.0007937005259840996
1769,0.31346842646598816,0.40226414799690247,1.0,0.9,0.0007937005259840996
1770,0.3134680688381195,0.40232035517692566,1.0,0.9,0.0007937005259840996
1771,0.31346794962882996,0.40229642391204834,1.0,0.9,0.0007937005259840996
1772,0.31346768140792847,0.4022817611694336,1.0,0.9,0.0007937005259840996
1773,0.3134675621986389,0.40227439999580383,1.0,0.9,0.0007937005259840996
1774,0.3134673535823822,0.40233683586120605,1.0,0.9,0.0007937005259840996
1775,0.3134671449661255,0.4023248255252838,1.0,0.9,0.0007937005259840996
1776,0.3134669065475464,0.4022705554962158,1.0,0.9,0.0007937005259840996
1777,0.3134666979312897,0.40234699845314026,1.0,0.9,0.0007937005259840996
1778,0.31346654891967773,0.4023975729942322,1.0,0.9,0.0007937005259840996
1779,0.31346631050109863,0.40229499340057373,1.0,0.9,0.0007937005259840996
1780,0.31346607208251953,0.40227940678596497,1.0,0.9,0.0007937005259840996
1781,0.31346574425697327,0.40226367115974426,1.0,0.9,0.0007937005259840996
1782,0.3134656250476837,0.40220093727111816,1.0,0.9,0.0007937005259840996
1783,0.313465416431427,0.4022444784641266,1.0,0.9,0.0007937005259840996
1784,0.3134652376174927,0.40232789516448975,1.0,0.9,0.0007937005259840996
1785,0.31346508860588074,0.4024175703525543,1.0,0.9,0.0007937005259840996
1786,0.313464879989624,0.4024035632610321,1.0,0.9,0.0007937005259840996
1787,0.3134646713733673,0.40247902274131775,1.0,0.9,0.0007937005259840996
1788,0.31346452236175537,0.4023904502391815,1.0,0.9,0.0007937005259840996
1789,0.3134641945362091,0.4023769497871399,1.0,0.9,0.0007937005259840996
1790,0.31346386671066284,0.40242254734039307,1.0,0.9,0.0007937005259840996
1791,0.3134637176990509,0.4024549722671509,1.0,0.9,0.0007937005259840996
1792,0.3134635388851166,0.4024239778518677,1.0,0.9,0.0007937005259840996
1793,0.31346336007118225,0.40239861607551575,1.0,0.9,0.0007937005259840996
1794,0.31346312165260315,0.4023568034172058,1.0,0.9,0.0007937005259840996
1795,0.31346288323402405,0.4023599922657013,1.0,0.9,0.0007937005259840996
1796,0.3134627640247345,0.40243029594421387,1.0,0.9,0.0007937005259840996
1797,0.3134625554084778,0.402455598115921,1.0,0.9,0.0007937005259840996
1798,0.3134623169898987,0.40238869190216064,1.0,0.9,0.0007937005259840996
1799,0.31346213817596436,0.4023205041885376,1.0,0.9,0.0007937005259840996
1800,0.31346195936203003,0.4023224711418152,1.0,0.9,0.0007937005259840996
1801,0.3134617805480957,0.4024900197982788,1.0,0.9,0.0007937005259840996
1802,0.3134615421295166,0.4025048017501831,1.0,0.9,0.0007937005259840996
1803,0.3134613633155823,0.4024249315261841,1.0,0.9,0.0007937005259840996
1804,0.31346115469932556,0.4024306535720825,1.0,0.9,0.0007937005259840996
1805,0.31346091628074646,0.4024828374385834,1.0,0.9,0.0007937005259840996
1806,0.31346070766448975,0.40248429775238037,1.0,0.9,0.0007937005259840996
1807,0.3134605288505554,0.40240299701690674,1.0,0.9,0.0007937005259840996
1808,0.3134603202342987,0.40243858098983765,1.0,0.9,0.0007937005259840996
1809,0.3134600818157196,0.40244072675704956,1.0,0.9,0.0007937005259840996
1810,0.3134600818157196,0.402455598115921,1.0,0.9,0.0007937005259840996
1811,0.3134597837924957,0.40246400237083435,1.0,0.9,0.0007937005259840996
1812,0.3134595453739166,0.4025140106678009,1.0,0.9,0.0007937005259840996
1813,0.3134593963623047,0.40246817469596863,1.0,0.9,0.0007937005259840996
1814,0.31345921754837036,0.4023995101451874,1.0,0.9,0.0007937005259840996
1815,0.31345897912979126,0.4024474024772644,1.0,0.9,0.0007937005259840996
1816,0.3134588301181793,0.4024646282196045,1.0,0.9,0.0007937005259840996
1817,0.3134585916996002,0.40251195430755615,1.0,0.9,0.0007937005259840996
1818,0.3134584426879883,0.40251293778419495,1.0,0.9,0.0007937005259840996
1819,0.31345826387405396,0.40251651406288147,1.0,0.9,0.0007937005259840996
1820,0.313458114862442,0.40248358249664307,1.0,0.9,0.0007937005259840996
1821,0.31345778703689575,0.4025033712387085,1.0,0.9,0.0007937005259840996
1822,0.313457727432251,0.4024844467639923,1.0,0.9,0.0007937005259840996
1823,0.3134574592113495,0.40250658988952637,1.0,0.9,0.0007937005259840996
1824,0.3134572505950928,0.4025515019893646,1.0,0.9,0.0007937005259840996
1825,0.31345704197883606,0.4025942087173462,1.0,0.9,0.0007937005259840996
1826,0.3134569227695465,0.40248963236808777,1.0,0.9,0.0007937005259840996
1827,0.313456654548645,0.4024182856082916,1.0,0.9,0.0007937005259840996
1828,0.3134564757347107,0.4024408757686615,1.0,0.9,0.0007937005259840996
1829,0.31345629692077637,0.4025989770889282,1.0,0.9,0.0007937005259840996
1830,0.31345608830451965,0.40257641673088074,1.0,0.9,0.0007937005259840996
1831,0.3134559392929077,0.40242835879325867,1.0,0.9,0.0007937005259840996
1832,0.3134557604789734,0.4024413824081421,1.0,0.9,0.0007937005259840996
1833,0.3134555220603943,0.4025208652019501,1.0,0.9,0.0007937005259840996
1834,0.31345534324645996,0.4024863541126251,1.0,0.9,0.0007937005259840996
1835,0.31345510482788086,0.40256544947624207,1.0,0.9,0.0007937005259840996
1836,0.3134549558162689,0.40256237983703613,1.0,0.9,0.0007937005259840996
1837,0.3134547770023346,0.4025646150112152,1.0,0.9,0.0007937005259840996
1838,0.3134545385837555,0.4025396704673767,1.0,0.9,0.0007937005259840996
1839,0.31345435976982117,0.4025665521621704,1.0,0.9,0.0007937005259840996
1840,0.3134542405605316,0.4025875926017761,1.0,0.9,0.0007937005259840996
1841,0.3134540319442749,0.40260666608810425,1.0,0.9,0.0007937005259840996
1842,0.3134538531303406,0.4025464951992035,1.0,0.9,0.0007937005259840996
1843,0.3134536147117615,0.4025331139564514,1.0,0.9,0.0007937005259840996
1844,0.3134535253047943,0.40252918004989624,1.0,0.9,0.0007937005259840996
1845,0.3134533166885376,0.4026096761226654,1.0,0.9,0.0007937005259840996
1846,0.3134531080722809,0.40257689356803894,1.0,0.9,0.0007937005259840996
1847,0.31345292925834656,0.40251579880714417,1.0,0.9,0.0007937005259840996
1848,0.31345272064208984,0.40256810188293457,1.0,0.9,0.0007937005259840996
1849,0.3134525418281555,0.4026215076446533,1.0,0.9,0.0007937005259840996
1850,0.3134523034095764,0.40273913741111755,1.0,0.9,0.0007937005259840996
1851,0.3134520649909973,0.402736634016037,1.0,0.9,0.0007937005259840996
1852,0.313451886177063,0.4026808440685272,1.0,0.9,0.0007937005259840996
1853,0.3134516477584839,0.4026893675327301,1.0,0.9,0.0007937005259840996
1854,0.3134516179561615,0.4026627242565155,1.0,0.9,0.0007937005259840996
1855,0.3134514093399048,0.4027092456817627,1.0,0.9,0.0007937005259840996
1856,0.31345126032829285,0.40273067355155945,1.0,0.9,0.0007937005259840996
1857,0.31345099210739136,0.40275391936302185,1.0,0.9,0.0007937005259840996
1858,0.31345078349113464,0.40274062752723694,1.0,0.9,0.0007937005259840996
1859,0.3134506046772003,0.40270936489105225,1.0,0.9,0.0007937005259840996
1860,0.3134504556655884,0.4026883840560913,1.0,0.9,0.0007937005259840996
1861,0.31345027685165405,0.4027266204357147,1.0,0.9,0.0007937005259840996
1862,0.3134501278400421,0.4027444124221802,1.0,0.9,0.0006299605249474364
1863,0.3134499788284302,0.40270209312438965,1.0,0.9,0.0006299605249474364
1864,0.3134496808052063,0.40269774198532104,1.0,0.9,0.0006299605249474364
1865,0.3134496212005615,0.4026351869106293,1.0,0.9,0.0006299605249474364
1866,0.3134494721889496,0.4027005136013031,1.0,0.9,0.0006299605249474364
1867,0.3134493827819824,0.40272757411003113,1.0,0.9,0.0006299605249474364
1868,0.31344926357269287,0.40273669362068176,1.0,0.9,0.0006299605249474364
1869,0.31344908475875854,0.4027356803417206,1.0,0.9,0.0006299605249474364
1870,0.3134489357471466,0.40270236134529114,1.0,0.9,0.0006299605249474364
1871,0.31344878673553467,0.40271109342575073,1.0,0.9,0.0006299605249474364
1872,0.31344854831695557,0.4027422070503235,1.0,0.9,0.0006299605249474364
1873,0.3134484887123108,0.40277808904647827,1.0,0.9,0.0006299605249474364
1874,0.3134482502937317,0.40281882882118225,1.0,0.9,0.0006299605249474364
1875,0.31344807147979736,0.4028257727622986,1.0,0.9,0.0006299605249474364
1876,0.3134479820728302,0.4028622508049011,1.0,0.9,0.0006299605249474364
1877,0.31344783306121826,0.40279337763786316,1.0,0.9,0.0006299605249474364
1878,0.31344765424728394,0.40272754430770874,1.0,0.9,0.0006299605249474364
1879,0.3134475648403168,0.40269625186920166,1.0,0.9,0.0006299605249474364
1880,0.31344735622406006,0.4026832580566406,1.0,0.9,0.0006299605249474364
1881,0.3134472370147705,0.40268978476524353,1.0,0.9,0.0006299605249474364
1882,0.31344708800315857,0.40274474024772644,1.0,0.9,0.0006299605249474364
1883,0.31344684958457947,0.40280917286872864,1.0,0.9,0.0006299605249474364
1884,0.31344670057296753,0.4027611017227173,1.0,0.9,0.0006299605249474364
1885,0.31344661116600037,0.4027373492717743,1.0,0.9,0.0006299605249474364
1886,0.3134464919567108,0.4027370810508728,1.0,0.9,0.0006299605249474364
1887,0.3134463131427765,0.402726948261261,1.0,0.9,0.0006299605249474364
1888,0.31344619393348694,0.40273043513298035,1.0,0.9,0.0006299605249474364
1889,0.3134460151195526,0.40277916193008423,1.0,0.9,0.0006299605249474364
1890,0.31344595551490784,0.40279555320739746,1.0,0.9,0.0006299605249474364
1891,0.3134457468986511,0.4027906656265259,1.0,0.9,0.0006299605249474364
1892,0.3134455680847168,0.40277400612831116,1.0,0.9,0.0006299605249474364
1893,0.31344538927078247,0.4028044641017914,1.0,0.9,0.0006299605249474364
1894,0.3134452700614929,0.40286338329315186,1.0,0.9,0.0006299605249474364
1895,0.31344515085220337,0.40282607078552246,1.0,0.9,0.0006299605249474364
1896,0.31344500184059143,0.40283241868019104,1.0,0.9,0.0006299605249474364
1897,0.3134448230266571,0.4028385877609253,1.0,0.9,0.0006299605249474364
1898,0.31344470381736755,0.4028652310371399,1.0,0.9,0.0006299605249474364
1899,0.31344467401504517,0.40285274386405945,1.0,0.9,0.0006299605249474364
1900,0.3134443759918213,0.4027792811393738,1.0,0.9,0.0006299605249474364
1901,0.31344425678253174,0.4028194546699524,1.0,0.9,0.0006299605249474364
1902,0.3134441077709198,0.40284454822540283,1.0,0.9,0.0006299605249474364
1903,0.31344395875930786,0.40290191769599915,1.0,0.9,0.0006299605249474364
1904,0.31344395875930786,0.4028961658477783,1.0,0.9,0.0006299605249474364
1905,0.31344377994537354,0.4028618633747101,1.0,0.9,0.0006299605249474364
1906,0.31344354152679443,0.40290722250938416,1.0,0.9,0.0006299605249474364
1907,0.31344345211982727,0.40293410420417786,1.0,0.9,0.0006299605249474364
1908,0.3134433627128601,0.40295445919036865,1.0,0.9,0.0006299605249474364
1909,0.3134431838989258,0.4028869569301605,1.0,0.9,0.0006299605249474364
1910,0.31344306468963623,0.402853399515152,1.0,0.9,0.0006299605249474364
1911,0.3134429454803467,0.4028712213039398,1.0,0.9,0.0006299605249474364
1912,0.31344279646873474,0.4028656482696533,1.0,0.9,0.0006299605249474364
1913,0.3134426772594452,0.402852863073349,1.0,0.9,0.0006299605249474364
1914,0.31344252824783325,0.4028349816799164,1.0,0.9,0.0006299605249474364
1915,0.3134424686431885,0.40294063091278076,1.0,0.9,0.0006299605249474364
1916,0.31344228982925415,0.4029061496257782,1.0,0.9,0.0006299605249474364
1917,0.31344208121299744,0.4029127359390259,1.0,0.9,0.0006299605249474364
1918,0.31344202160835266,0.4029262661933899,1.0,0.9,0.0006299605249474364
1919,0.3134418725967407,0.40295708179473877,1.0,0.9,0.0006299605249474364
1920,0.313441663980484,0.4029806852340698,1.0,0.9,0.0006299605249474364
1921,0.31344160437583923,0.40289294719696045,1.0,0.9,0.0006299605249474364
1922,0.31344136595726013,0.4028834402561188,1.0,0.9,0.0006299605249474364
1923,0.31344130635261536,0.40287521481513977,1.0,0.9,0.0006299605249474364
1924,0.3134411871433258,0.40284180641174316,1.0,0.9,0.0006299605249474364
1925,0.31344103813171387,0.4027996063232422,1.0,0.9,0.0006299605249474364
1926,0.31344088912010193,0.40279701352119446,1.0,0.9,0.0006299605249474364
1927,0.31344074010849,0.4028054177761078,1.0,0.9,0.0006299605249474364
1928,0.3134406507015228,0.4029195010662079,1.0,0.9,0.0006299605249474364
1929,0.3134404718875885,0.40299978852272034,1.0,0.9,0.0006299605249474364
1930,0.3134402632713318,0.4029523730278015,1.0,0.9,0.0006299605249474364
1931,0.31344014406204224,0.40293723344802856,1.0,0.9,0.0006299605249474364
1932,0.3134400546550751,0.4028896689414978,1.0,0.9,0.0006299605249474364
1933,0.3134399354457855,0.40282729268074036,1.0,0.9,0.0006299605249474364
1934,0.31343981623649597,0.40282824635505676,1.0,0.9,0.0006299605249474364
1935,0.31343966722488403,0.4028281271457672,1.0,0.9,0.0006299605249474364
1936,0.31343960762023926,0.40283194184303284,1.0,0.9,0.0006299605249474364
1937,0.31343933939933777,0.4028787612915039,1.0,0.9,0.0006299605249474364
1938,0.31343913078308105,0.4028852880001068,1.0,0.9,0.0006299605249474364
1939,0.3134390711784363,0.4028831124305725,1.0,0.9,0.0006299605249474364
1940,0.31343886256217957,0.4029141664505005,1.0,0.9,0.0006299605249474364
1941,0.3134387135505676,0.4029342234134674,1.0,0.9,0.0006299605249474364
1942,0.31343862414360046,0.40295037627220154,1.0,0.9,0.0006299605249474364
1943,0.3134385347366333,0.40292853116989136,1.0,0.9,0.0006299605249474364
1944,0.31343841552734375,0.4029478430747986,1.0,0.9,0.0006299605249474364
1945,0.3134382665157318,0.4029068052768707,1.0,0.9,0.0006299605249474364
1946,0.31343814730644226,0.40284842252731323,1.0,0.9,0.0006299605249474364
1947,0.31343796849250793,0.40291842818260193,1.0,0.9,0.0006299605249474364
1948,0.3134378492832184,0.4029788672924042,1.0,0.9,0.0006299605249474364
1949,0.31343770027160645,0.40291082859039307,1.0,0.9,0.0006299605249474364
1950,0.3134376108646393,0.402872234582901,1.0,0.9,0.0006299605249474364
1951,0.31343749165534973,0.40289607644081116,1.0,0.9,0.0006299605249474364
1952,0.313437283039093,0.4029510021209717,1.0,0.9,0.0006299605249474364
1953,0.31343716382980347,0.4030349850654602,1.0,0.9,0.0006299605249474364
1954,0.31343698501586914,0.40302273631095886,1.0,0.9,0.0006299605249474364
1955,0.3134368658065796,0.40300610661506653,1.0,0.9,0.0006299605249474364
1956,0.3134368062019348,0.4030252695083618,1.0,0.9,0.0006299605249474364
1957,0.3134366273880005,0.4030297100543976,1.0,0.9,0.0006299605249474364
1958,0.3134365379810333,0.40305739641189575,1.0,0.9,0.0006299605249474364
1959,0.31343644857406616,0.40308815240859985,1.0,0.9,0.0006299605249474364
1960,0.313436359167099,0.4030323028564453,1.0,0.9,0.0006299605249474364
1961,0.31343623995780945,0.4030308127403259,1.0,0.9,0.0006299605249474364
1962,0.31343594193458557,0.40304645895957947,1.0,0.9,0.0006299605249474364
1963,0.313435822725296,0.4030495584011078,1.0,0.9,0.0006299605249474364
1964,0.31343573331832886,0.40302756428718567,1.0,0.9,0.0006299605249474364
1965,0.3134355843067169,0.40307655930519104,1.0,0.9,0.0006299605249474364
1966,0.3134354054927826,0.4030599594116211,1.0,0.9,0.0006299605249474364
1967,0.31343522667884827,0.40306660532951355,1.0,0.9,0.0006299605249474364
1968,0.3134351968765259,0.40310946106910706,1.0,0.9,0.0006299605249474364
1969,0.31343507766723633,0.4030574858188629,1.0,0.9,0.0006299605249474364
1970,0.313434898853302,0.4030396342277527,1.0,0.9,0.0006299605249474364
1971,0.31343477964401245,0.40308859944343567,1.0,0.9,0.0006299605249474364
1972,0.3134346306324005,0.40313106775283813,1.0,0.9,0.0006299605249474364
1973,0.3134344220161438,0.40315747261047363,1.0,0.9,0.0006299605249474364
1974,0.31343433260917664,0.4031181335449219,1.0,0.9,0.0006299605249474364
1975,0.3134342432022095,0.4031156599521637,1.0,0.9,0.0006299605249474364
1976,0.31343409419059753,0.40308403968811035,1.0,0.9,0.0006299605249474364
1977,0.3134339451789856,0.40313521027565,1.0,0.9,0.0006299605249474364
1978,0.31343376636505127,0.40313366055488586,1.0,0.9,0.0006299605249474364
1979,0.3134336471557617,0.403167188167572,1.0,0.9,0.0006299605249474364
1980,0.31343358755111694,0.4032392203807831,1.0,0.9,0.0006299605249474364
1981,0.3134334087371826,0.40314170718193054,1.0,0.9,0.0006299605249474364
1982,0.3134332597255707,0.40320003032684326,1.0,0.9,0.0006299605249474364
1983,0.31343314051628113,0.40316444635391235,1.0,0.9,0.0006299605249474364
1984,0.3134329915046692,0.40318161249160767,1.0,0.9,0.0006299605249474364
1985,0.31343281269073486,0.40314945578575134,1.0,0.9,0.0006299605249474364
1986,0.3134327828884125,0.4031285047531128,1.0,0.9,0.0006299605249474364
1987,0.31343257427215576,0.40317249298095703,1.0,0.9,0.0006299605249474364
1988,0.3134324550628662,0.4031534492969513,1.0,0.9,0.0006299605249474364
1989,0.31343233585357666,0.40316566824913025,1.0,0.9,0.0006299605249474364
1990,0.3134321868419647,0.4032009243965149,1.0,0.9,0.0006299605249474364
1991,0.31343209743499756,0.4031693935394287,1.0,0.9,0.0006299605249474364
1992,0.31343191862106323,0.40323692560195923,1.0,0.9,0.0006299605249474364
1993,0.31343182921409607,0.4031933844089508,1.0,0.9,0.0006299605249474364
1994,0.31343162059783936,0.403238981962204,1.0,0.9,0.0006299605249474364
1995,0.31343159079551697,0.40318500995635986,1.0,0.9,0.0006299605249474364
1996,0.31343141198158264,0.4032019078731537,1.0,0.9,0.0006299605249474364
1997,0.3134312927722931,0.4032495617866516,1.0,0.9,0.0006299605249474364
