,train loss,val loss,train acc,val acc,lr
0,0.6881923079490662,0.6866109371185303,0.55,0.67,0.001
1,0.6812594532966614,0.6822866797447205,0.68,0.67,0.001
2,0.6742743849754333,0.6777164936065674,0.7,0.67,0.001
3,0.6669023036956787,0.6725863814353943,0.7,0.7,0.001
4,0.6587281227111816,0.6665080189704895,0.7,0.68,0.001
5,0.6492112874984741,0.6590167880058289,0.72,0.7,0.001
6,0.6376497745513916,0.6496167182922363,0.74,0.68,0.001
7,0.6231927275657654,0.6379601955413818,0.78,0.7,0.001
8,0.6049793362617493,0.6247252225875854,0.77,0.68,0.001
9,0.5829725861549377,0.6160152554512024,0.77,0.66,0.001
10,0.5617799758911133,0.629094660282135,0.77,0.62,0.001
11,0.5604047775268555,0.5999242663383484,0.74,0.68,0.001
12,0.540332019329071,0.5823030471801758,0.74,0.71,0.001
13,0.5328019857406616,0.5696279406547546,0.73,0.76,0.001
14,0.5219560861587524,0.5670527219772339,0.77,0.74,0.001
15,0.5113712549209595,0.5755392909049988,0.8,0.73,0.001
16,0.5206788778305054,0.5657676458358765,0.79,0.73,0.001
17,0.5119609832763672,0.556054413318634,0.79,0.75,0.001
18,0.5086396336555481,0.551593005657196,0.8,0.76,0.001
19,0.5101168751716614,0.5523807406425476,0.81,0.75,0.001
20,0.5035920739173889,0.5577431321144104,0.8,0.74,0.001
21,0.49598997831344604,0.5672779679298401,0.8,0.72,0.001
22,0.49675747752189636,0.5691307187080383,0.83,0.72,0.001
23,0.49470001459121704,0.5644484162330627,0.83,0.74,0.001
24,0.48856011033058167,0.5617782473564148,0.84,0.73,0.001
25,0.4895888566970825,0.5616738796234131,0.83,0.72,0.001
26,0.4886901378631592,0.5632379055023193,0.84,0.73,0.001
27,0.48258891701698303,0.5645371079444885,0.84,0.71,0.001
28,0.4824966490268707,0.5628608465194702,0.83,0.72,0.001
29,0.48382869362831116,0.5620303153991699,0.82,0.7,0.001
30,0.4794081151485443,0.5607719421386719,0.83,0.74,0.001
31,0.47707855701446533,0.5601948499679565,0.83,0.73,0.001
32,0.47888725996017456,0.5610093474388123,0.83,0.74,0.001
33,0.4745190441608429,0.5622904896736145,0.84,0.73,0.001
34,0.4730958044528961,0.5623326301574707,0.85,0.72,0.001
35,0.47345268726348877,0.560884416103363,0.84,0.72,0.001
36,0.4708254337310791,0.5577636361122131,0.85,0.74,0.001
37,0.46746498346328735,0.5551740527153015,0.85,0.74,0.001
38,0.46756598353385925,0.5541191101074219,0.83,0.75,0.001
39,0.4647293984889984,0.5544711351394653,0.83,0.75,0.001
40,0.46232059597969055,0.5551717281341553,0.84,0.75,0.001
41,0.4617786705493927,0.5535650849342346,0.85,0.75,0.001
42,0.45917731523513794,0.5505965352058411,0.83,0.76,0.001
43,0.45644405484199524,0.548795759677887,0.84,0.75,0.001
44,0.4557245373725891,0.5486403107643127,0.84,0.75,0.001
45,0.4522475302219391,0.5491273999214172,0.85,0.75,0.001
46,0.45081576704978943,0.5465695261955261,0.84,0.75,0.001
47,0.4483802318572998,0.5425752401351929,0.86,0.77,0.001
48,0.4454544484615326,0.5406731367111206,0.88,0.76,0.001
49,0.44395118951797485,0.5398212671279907,0.89,0.78,0.001
50,0.44075652956962585,0.5392165184020996,0.88,0.78,0.001
51,0.4393238425254822,0.5363227725028992,0.9,0.79,0.001
52,0.43630486726760864,0.5346286296844482,0.89,0.77,0.001
53,0.4346386790275574,0.5328607559204102,0.9,0.79,0.001
54,0.43178996443748474,0.5315306186676025,0.89,0.79,0.001
55,0.42976975440979004,0.5301910638809204,0.9,0.79,0.001
56,0.42705240845680237,0.5289075374603271,0.89,0.78,0.001
57,0.42488929629325867,0.5253483057022095,0.9,0.79,0.001
58,0.42203277349472046,0.5244375467300415,0.89,0.79,0.001
59,0.41895556449890137,0.523606538772583,0.89,0.78,0.001
60,0.41494038701057434,0.5195744037628174,0.91,0.78,0.001
61,0.44258636236190796,0.5343446731567383,0.88,0.79,0.001
62,0.43226516246795654,0.5419390797615051,0.89,0.75,0.001
63,0.4216364622116089,0.5319987535476685,0.89,0.77,0.001
64,0.4180917739868164,0.5223329663276672,0.9,0.8,0.001
65,0.4245881736278534,0.5230492353439331,0.89,0.79,0.001
66,0.44032272696495056,0.5227836966514587,0.87,0.78,0.001
67,0.4567084014415741,0.5209398865699768,0.85,0.79,0.001
68,0.45730531215667725,0.5171494483947754,0.84,0.8,0.001
69,0.44701701402664185,0.5190716981887817,0.87,0.8,0.001
70,0.4275988042354584,0.5379446148872375,0.89,0.78,0.001
71,0.4441656768321991,0.5481849908828735,0.86,0.76,0.001
72,0.47205308079719543,0.5515682697296143,0.82,0.74,0.001
73,0.43331214785575867,0.526995837688446,0.87,0.77,0.001
74,0.42598071694374084,0.5215131640434265,0.89,0.8,0.001
75,0.46215325593948364,0.525029182434082,0.84,0.78,0.001
76,0.4721585214138031,0.5229255557060242,0.84,0.79,0.001
77,0.45612359046936035,0.5334066152572632,0.85,0.79,0.001
78,0.46243420243263245,0.5400111675262451,0.84,0.78,0.001
79,0.46951812505722046,0.5352393984794617,0.84,0.77,0.001
80,0.4428671896457672,0.5272310972213745,0.88,0.79,0.001
81,0.44757920503616333,0.5213779807090759,0.87,0.8,0.001
82,0.4483834207057953,0.5289170742034912,0.87,0.77,0.001
83,0.4577760398387909,0.5281000137329102,0.84,0.77,0.001
84,0.4458331763744354,0.5300658345222473,0.86,0.78,0.001
85,0.4492771029472351,0.5297390222549438,0.85,0.79,0.001
86,0.4475036859512329,0.5327755212783813,0.86,0.78,0.001
87,0.4422275125980377,0.5317819118499756,0.87,0.78,0.001
88,0.4393918514251709,0.5263013243675232,0.87,0.79,0.001
89,0.42928820848464966,0.5238488912582397,0.9,0.78,0.001
90,0.43073657155036926,0.5219470262527466,0.88,0.79,0.001
91,0.42929673194885254,0.5183415412902832,0.88,0.8,0.001
92,0.4320325553417206,0.5171244740486145,0.87,0.79,0.001
93,0.4340975880622864,0.5155662894248962,0.87,0.79,0.001
94,0.43157655000686646,0.5155434608459473,0.88,0.79,0.001
95,0.4188919961452484,0.5192928910255432,0.9,0.79,0.001
96,0.41887709498405457,0.5272412300109863,0.9,0.78,0.001
97,0.422138512134552,0.5325236320495605,0.9,0.76,0.001
98,0.42416417598724365,0.5331278443336487,0.9,0.76,0.001
99,0.4226212799549103,0.5332667231559753,0.9,0.77,0.001
100,0.414176344871521,0.5192167162895203,0.91,0.78,0.001
101,0.41066670417785645,0.5106456875801086,0.92,0.79,0.001
102,0.4085928201675415,0.5161896347999573,0.91,0.79,0.001
103,0.4103941023349762,0.5171570777893066,0.89,0.79,0.001
104,0.41332417726516724,0.50895094871521,0.89,0.8,0.001
105,0.4134044647216797,0.5060911178588867,0.89,0.79,0.001
106,0.4103505611419678,0.5052125453948975,0.9,0.79,0.001
107,0.4072772264480591,0.5057967305183411,0.91,0.79,0.001
108,0.4053337574005127,0.5070040822029114,0.92,0.79,0.001
109,0.40465858578681946,0.516025722026825,0.92,0.79,0.001
110,0.4053412675857544,0.5165044069290161,0.92,0.8,0.001
111,0.40618014335632324,0.5181912779808044,0.92,0.78,0.001
112,0.4052685797214508,0.5169317126274109,0.92,0.78,0.001
113,0.4046776592731476,0.5127962827682495,0.92,0.79,0.001
114,0.40281006693840027,0.5107089877128601,0.92,0.81,0.001
115,0.40216881036758423,0.5106326341629028,0.91,0.8,0.001
116,0.40123870968818665,0.5106356143951416,0.91,0.8,0.001
117,0.401189923286438,0.5005787014961243,0.91,0.81,0.001
118,0.4015216529369354,0.5002210736274719,0.91,0.81,0.001
119,0.4020021855831146,0.49961376190185547,0.91,0.81,0.001
120,0.40055984258651733,0.5080253481864929,0.91,0.8,0.001
121,0.3997679650783539,0.5068017244338989,0.91,0.81,0.001
122,0.3989512324333191,0.5058621764183044,0.91,0.81,0.001
123,0.3984760046005249,0.5049816966056824,0.91,0.81,0.001
124,0.39837250113487244,0.5040346384048462,0.91,0.81,0.001
125,0.3977464735507965,0.5033131241798401,0.91,0.8,0.001
126,0.39726436138153076,0.5025602579116821,0.92,0.8,0.001
127,0.3962889611721039,0.5019504427909851,0.92,0.81,0.001
128,0.3953416049480438,0.5015555024147034,0.92,0.81,0.001
129,0.39500942826271057,0.5013312697410583,0.92,0.8,0.001
130,0.39432188868522644,0.5035703778266907,0.93,0.81,0.001
131,0.39367392659187317,0.5030481219291687,0.93,0.8,0.001
132,0.39492571353912354,0.5029948353767395,0.93,0.81,0.001
133,0.4042225778102875,0.4991113543510437,0.92,0.81,0.001
134,0.39820384979248047,0.5147881507873535,0.92,0.79,0.001
135,0.4137125015258789,0.5090823173522949,0.9,0.8,0.001
136,0.4421238601207733,0.49861130118370056,0.87,0.81,0.001
137,0.3929515779018402,0.5114150047302246,0.93,0.8,0.001
138,0.4490468502044678,0.49415260553359985,0.85,0.82,0.001
139,0.40523701906204224,0.537330687046051,0.91,0.78,0.001
140,0.5020109415054321,0.5526586771011353,0.8,0.74,0.001
141,0.4835115671157837,0.6150313019752502,0.82,0.68,0.001
142,0.589181661605835,0.7125582695007324,0.7,0.57,0.001
143,0.6949358582496643,0.6952811479568481,0.59,0.56,0.001
144,0.6677724719047546,0.6190466284751892,0.63,0.69,0.001
145,0.55647873878479,0.5503990054130554,0.74,0.75,0.001
146,0.5203539133071899,0.5148297548294067,0.78,0.8,0.001
147,0.503269374370575,0.5297937989234924,0.81,0.75,0.001
148,0.5026767253875732,0.5953311324119568,0.79,0.7,0.001
149,0.5243494510650635,0.6319904923439026,0.78,0.69,0.001
150,0.5934655070304871,0.5828412771224976,0.72,0.71,0.001
151,0.5186203122138977,0.5369851589202881,0.79,0.75,0.001
152,0.5003642439842224,0.5178382396697998,0.79,0.78,0.001
153,0.4990360736846924,0.5209128260612488,0.81,0.79,0.001
154,0.4977840483188629,0.5304784178733826,0.79,0.77,0.001
155,0.5090842247009277,0.5369322299957275,0.78,0.76,0.001
156,0.5168672800064087,0.5388102531433105,0.78,0.76,0.001
157,0.5187615752220154,0.5385162830352783,0.78,0.76,0.001
158,0.5141150951385498,0.5383379459381104,0.79,0.77,0.001
159,0.49763068556785583,0.5285484194755554,0.8,0.79,0.001
160,0.4677824378013611,0.5297864675521851,0.82,0.76,0.001
161,0.4389358460903168,0.535449743270874,0.87,0.75,0.001
162,0.4327305257320404,0.5529512166976929,0.89,0.76,0.001
163,0.4595452845096588,0.5626912117004395,0.86,0.75,0.001
164,0.47864532470703125,0.5563368201255798,0.82,0.75,0.001
165,0.45892971754074097,0.5433233380317688,0.85,0.74,0.001
166,0.4405466318130493,0.5399593710899353,0.88,0.76,0.001
167,0.4353398084640503,0.5361955761909485,0.87,0.78,0.001
168,0.4372357130050659,0.5362640619277954,0.88,0.77,0.001
169,0.44502753019332886,0.5355655550956726,0.86,0.76,0.001
170,0.4491424560546875,0.52911776304245,0.85,0.77,0.001
171,0.4404125511646271,0.5231534242630005,0.87,0.77,0.001
172,0.43115234375,0.5226640105247498,0.88,0.78,0.001
173,0.4254743158817291,0.521274983882904,0.89,0.79,0.001
174,0.42541447281837463,0.5199543833732605,0.9,0.79,0.001
175,0.4343554675579071,0.5200225710868835,0.89,0.8,0.001
176,0.4362623691558838,0.5197600722312927,0.88,0.81,0.001
177,0.43399515748023987,0.5204594135284424,0.89,0.8,0.001
178,0.4248676300048828,0.5215928554534912,0.9,0.78,0.001
179,0.4238527715206146,0.521594226360321,0.9,0.78,0.001
180,0.4253031611442566,0.5219197869300842,0.89,0.78,0.001
181,0.4271465539932251,0.5227487683296204,0.89,0.78,0.001
182,0.4282777011394501,0.523725152015686,0.89,0.78,0.001
183,0.427801251411438,0.5262624025344849,0.89,0.77,0.001
184,0.4223569929599762,0.5354077816009521,0.89,0.78,0.001
185,0.4232780933380127,0.5396771430969238,0.9,0.76,0.001
186,0.4240458011627197,0.5339042544364929,0.9,0.77,0.001
187,0.4180494546890259,0.5302382111549377,0.91,0.78,0.001
188,0.41618865728378296,0.5259335041046143,0.91,0.78,0.001
189,0.41708382964134216,0.5242530703544617,0.91,0.8,0.001
190,0.41840919852256775,0.5245751738548279,0.9,0.8,0.001
191,0.41936007142066956,0.5243703722953796,0.89,0.8,0.001
192,0.41786742210388184,0.5237483978271484,0.91,0.79,0.001
193,0.4150850772857666,0.5234693288803101,0.91,0.78,0.001
194,0.4131360948085785,0.5234525799751282,0.91,0.78,0.001
195,0.4125063717365265,0.5237070322036743,0.91,0.79,0.001
196,0.4130510091781616,0.5245099663734436,0.91,0.79,0.001
197,0.4140889346599579,0.5252152681350708,0.91,0.79,0.001
198,0.41441211104393005,0.524735152721405,0.91,0.79,0.001
199,0.4131404757499695,0.5237762331962585,0.91,0.79,0.001
200,0.4115230143070221,0.5229228734970093,0.91,0.79,0.001
201,0.4106382727622986,0.5220653414726257,0.91,0.78,0.001
202,0.4105306565761566,0.5210106372833252,0.91,0.78,0.001
203,0.41075271368026733,0.5195410847663879,0.91,0.79,0.001
204,0.41077467799186707,0.5175995826721191,0.91,0.79,0.001
205,0.4103423058986664,0.5156453251838684,0.91,0.79,0.001
206,0.40970227122306824,0.5145800113677979,0.91,0.79,0.001
207,0.40913498401641846,0.514911413192749,0.91,0.79,0.001
208,0.40852442383766174,0.5161755681037903,0.91,0.8,0.001
209,0.4081326425075531,0.5175920724868774,0.91,0.79,0.001
210,0.4080963134765625,0.5186150074005127,0.91,0.79,0.001
211,0.40815865993499756,0.5187344551086426,0.91,0.79,0.001
212,0.4080100357532501,0.5177828669548035,0.91,0.79,0.001
213,0.407576322555542,0.5161069631576538,0.91,0.8,0.001
214,0.4070492684841156,0.5141411423683167,0.91,0.8,0.001
215,0.40663787722587585,0.5122702717781067,0.91,0.79,0.001
216,0.40648186206817627,0.5110089778900146,0.91,0.79,0.001
217,0.40648898482322693,0.5107594132423401,0.91,0.79,0.001
218,0.40625911951065063,0.5112963318824768,0.91,0.79,0.001
219,0.405852735042572,0.5120300650596619,0.91,0.79,0.001
220,0.4055159389972687,0.5125606656074524,0.91,0.79,0.001
221,0.40522482991218567,0.5127544403076172,0.91,0.8,0.001
222,0.4049713909626007,0.5126153230667114,0.92,0.8,0.001
223,0.4047909677028656,0.5122516751289368,0.92,0.8,0.001
224,0.40462586283683777,0.5118438601493835,0.92,0.8,0.001
225,0.4043610692024231,0.5115084052085876,0.92,0.8,0.001
226,0.40402257442474365,0.5112178325653076,0.92,0.79,0.001
227,0.4037415385246277,0.5108608603477478,0.92,0.79,0.001
228,0.4035438895225525,0.510352611541748,0.92,0.79,0.001
229,0.4033501148223877,0.5097243785858154,0.92,0.79,0.001
230,0.4031238257884979,0.5091583728790283,0.92,0.79,0.001
231,0.4028971791267395,0.5089055895805359,0.92,0.79,0.001
232,0.40266597270965576,0.5090714693069458,0.92,0.79,0.001
233,0.40240707993507385,0.5094987154006958,0.92,0.79,0.001
234,0.40215978026390076,0.509904682636261,0.92,0.79,0.001
235,0.4019565284252167,0.510063111782074,0.92,0.8,0.001
236,0.4017692804336548,0.5098812580108643,0.92,0.8,0.001
237,0.4015630781650543,0.5094082951545715,0.92,0.8,0.001
238,0.40134114027023315,0.5088022351264954,0.92,0.8,0.0007937005259840996
239,0.40112268924713135,0.5083639621734619,0.92,0.8,0.0007937005259840996
240,0.4009535312652588,0.5080443024635315,0.92,0.8,0.0007937005259840996
241,0.4007863998413086,0.5078499913215637,0.92,0.79,0.0007937005259840996
242,0.4006275236606598,0.50773024559021,0.92,0.79,0.0007937005259840996
243,0.40048083662986755,0.507617712020874,0.92,0.79,0.0007937005259840996
244,0.4003373980522156,0.5074731707572937,0.92,0.79,0.0007937005259840996
245,0.4001868963241577,0.5073059797286987,0.92,0.79,0.0007937005259840996
246,0.400030255317688,0.5071620345115662,0.92,0.79,0.0007937005259840996
247,0.39987656474113464,0.5070898532867432,0.92,0.79,0.0007937005259840996
248,0.3997292220592499,0.5071041584014893,0.92,0.8,0.0007937005259840996
249,0.3995858132839203,0.5071735978126526,0.92,0.8,0.0007937005259840996
250,0.39944514632225037,0.5072384476661682,0.92,0.8,0.0007937005259840996
251,0.3993077576160431,0.5072397589683533,0.92,0.8,0.0007937005259840996
252,0.39917171001434326,0.5071454644203186,0.92,0.8,0.0007937005259840996
253,0.39903390407562256,0.5069614052772522,0.92,0.8,0.0007937005259840996
254,0.3988945782184601,0.5067277550697327,0.92,0.8,0.0007937005259840996
255,0.398757666349411,0.5065023303031921,0.92,0.79,0.0007937005259840996
256,0.39862561225891113,0.5063349008560181,0.92,0.79,0.0007937005259840996
257,0.3984966576099396,0.5062456727027893,0.92,0.79,0.0007937005259840996
258,0.3983686864376068,0.5062175393104553,0.92,0.8,0.0007937005259840996
259,0.3982418477535248,0.5062111020088196,0.92,0.8,0.0007937005259840996
260,0.3981162905693054,0.506189227104187,0.92,0.8,0.0007937005259840996
261,0.3979911506175995,0.5061363577842712,0.92,0.8,0.0007937005259840996
262,0.39786627888679504,0.5060616731643677,0.92,0.8,0.0007937005259840996
263,0.39774346351623535,0.5059879422187805,0.92,0.8,0.0007937005259840996
264,0.39762333035469055,0.5059334635734558,0.92,0.8,0.0007937005259840996
265,0.3975050449371338,0.5059005618095398,0.92,0.8,0.0007937005259840996
266,0.3973873555660248,0.5058746933937073,0.92,0.8,0.0007937005259840996
267,0.39727020263671875,0.5058330297470093,0.92,0.81,0.0007937005259840996
268,0.3971540033817291,0.5057579874992371,0.92,0.81,0.0007937005259840996
269,0.39703884720802307,0.5056461095809937,0.92,0.81,0.0007937005259840996
270,0.3969244658946991,0.505510687828064,0.92,0.81,0.0007937005259840996
271,0.3968111276626587,0.5053762793540955,0.92,0.81,0.0007937005259840996
272,0.3966994881629944,0.5052661299705505,0.92,0.81,0.0007937005259840996
273,0.39658889174461365,0.5051920413970947,0.92,0.81,0.0007937005259840996
274,0.3964787721633911,0.5051491260528564,0.92,0.81,0.0007937005259840996
275,0.39636915922164917,0.5051210522651672,0.92,0.81,0.0007937005259840996
276,0.39626017212867737,0.5050891637802124,0.92,0.81,0.0007937005259840996
277,0.3961521089076996,0.5050421357154846,0.92,0.81,0.0007937005259840996
278,0.3960445821285248,0.5049799084663391,0.92,0.81,0.0007937005259840996
279,0.3959377706050873,0.5049101114273071,0.92,0.81,0.0007937005259840996
280,0.39583179354667664,0.5048428177833557,0.92,0.81,0.0007937005259840996
281,0.3957262933254242,0.5047839879989624,0.92,0.81,0.0007937005259840996
282,0.3956211507320404,0.5047328472137451,0.92,0.81,0.0007937005259840996
283,0.3955162465572357,0.5046833157539368,0.92,0.81,0.0007937005259840996
284,0.3954116404056549,0.5046282410621643,0.92,0.81,0.0007937005259840996
285,0.39530742168426514,0.5045637488365173,0.92,0.81,0.0007937005259840996
286,0.3952036201953888,0.5044915676116943,0.92,0.81,0.0007937005259840996
287,0.39510005712509155,0.5044183731079102,0.92,0.81,0.0007937005259840996
288,0.3949967324733734,0.504352331161499,0.92,0.81,0.0007937005259840996
289,0.3948932886123657,0.5042984485626221,0.92,0.81,0.0007937005259840996
290,0.3947899341583252,0.5042563676834106,0.92,0.81,0.0007937005259840996
291,0.3946863114833832,0.5042204260826111,0.92,0.81,0.0007937005259840996
292,0.394582599401474,0.5041832327842712,0.92,0.81,0.0007937005259840996
293,0.3944788873195648,0.504138171672821,0.92,0.81,0.0007937005259840996
294,0.3943748474121094,0.5040825605392456,0.92,0.81,0.0007937005259840996
295,0.39427030086517334,0.50401771068573,0.92,0.81,0.0007937005259840996
296,0.3941652774810791,0.503947913646698,0.92,0.81,0.0007937005259840996
297,0.3940596878528595,0.5038775205612183,0.92,0.81,0.0007937005259840996
298,0.39395320415496826,0.5038090348243713,0.92,0.81,0.0007937005259840996
299,0.3938458561897278,0.503743052482605,0.92,0.81,0.0007937005259840996
300,0.3937375545501709,0.5036773681640625,0.92,0.81,0.0007937005259840996
301,0.39362800121307373,0.503609836101532,0.92,0.81,0.0007937005259840996
302,0.3935169577598572,0.5035389065742493,0.92,0.81,0.0007937005259840996
303,0.39340412616729736,0.5034644603729248,0.92,0.81,0.0007937005259840996
304,0.39328959584236145,0.5033878087997437,0.92,0.81,0.0007937005259840996
305,0.3931726813316345,0.5033101439476013,0.92,0.81,0.0007937005259840996
306,0.3930533230304718,0.5032315850257874,0.92,0.81,0.0007937005259840996
307,0.3929310739040375,0.5031516551971436,0.92,0.81,0.0007937005259840996
308,0.392805278301239,0.503068208694458,0.92,0.81,0.0007937005259840996
309,0.3926757574081421,0.5029798746109009,0.92,0.82,0.0007937005259840996
310,0.3925415873527527,0.502886176109314,0.92,0.82,0.0007937005259840996
311,0.3924022614955902,0.5027883052825928,0.92,0.82,0.0007937005259840996
312,0.39225682616233826,0.5026887655258179,0.92,0.81,0.0007937005259840996
313,0.3921041488647461,0.5025906562805176,0.92,0.81,0.0007937005259840996
314,0.39194315671920776,0.502496063709259,0.92,0.81,0.0007937005259840996
315,0.39177238941192627,0.50240558385849,0.92,0.81,0.0007937005259840996
316,0.3915904760360718,0.5023176670074463,0.92,0.81,0.0007937005259840996
317,0.3913956582546234,0.5022295117378235,0.93,0.81,0.0007937005259840996
318,0.3911864161491394,0.5021390914916992,0.93,0.81,0.0007937005259840996
319,0.3909613788127899,0.5020453929901123,0.93,0.81,0.0007937005259840996
320,0.3907196521759033,0.5019501447677612,0.93,0.81,0.0007937005259840996
321,0.39046111702919006,0.5018588900566101,0.93,0.81,0.0007937005259840996
322,0.39018714427948,0.5017803311347961,0.93,0.81,0.0007937005259840996
323,0.3899008631706238,0.5017275810241699,0.93,0.81,0.0007937005259840996
324,0.389607697725296,0.501718282699585,0.93,0.81,0.0007937005259840996
325,0.3893142640590668,0.5017744302749634,0.93,0.81,0.0007937005259840996
326,0.3890266716480255,0.5019131302833557,0.93,0.81,0.0007937005259840996
327,0.3887485861778259,0.502123236656189,0.93,0.81,0.0007937005259840996
328,0.38848209381103516,0.5023478269577026,0.93,0.81,0.0007937005259840996
329,0.38822948932647705,0.5025190114974976,0.93,0.81,0.0007937005259840996
330,0.3879925012588501,0.5026300549507141,0.93,0.81,0.0007937005259840996
331,0.3877682387828827,0.5027313232421875,0.93,0.81,0.0007937005259840996
332,0.3875536024570465,0.5028407573699951,0.93,0.8,0.0007937005259840996
333,0.3873494863510132,0.5029253959655762,0.93,0.8,0.0007937005259840996
334,0.3871583938598633,0.5029895305633545,0.93,0.8,0.0007937005259840996
335,0.38697776198387146,0.5030539035797119,0.93,0.8,0.0007937005259840996
336,0.3868074119091034,0.5030860900878906,0.93,0.8,0.0007937005259840996
337,0.3866513967514038,0.5031217336654663,0.93,0.8,0.0007937005259840996
338,0.3865100145339966,0.5032219290733337,0.93,0.8,0.0007937005259840996
339,0.386379599571228,0.5033058524131775,0.93,0.8,0.0007937005259840996
340,0.3862585723400116,0.5034048557281494,0.93,0.8,0.0007937005259840996
341,0.38614097237586975,0.5033323764801025,0.93,0.8,0.0007937005259840996
342,0.3860185146331787,0.5034506916999817,0.93,0.8,0.0007937005259840996
343,0.3859034776687622,0.5027282238006592,0.93,0.8,0.0007937005259840996
344,0.38598185777664185,0.5045743584632874,0.93,0.8,0.0007937005259840996
345,0.3871878385543823,0.503456711769104,0.93,0.8,0.0007937005259840996
346,0.3867136240005493,0.5017669796943665,0.93,0.81,0.0007937005259840996
347,0.38676178455352783,0.5012814998626709,0.93,0.81,0.0007937005259840996
348,0.386944055557251,0.5019755959510803,0.93,0.81,0.0007937005259840996
349,0.3863059878349304,0.5030315518379211,0.93,0.8,0.0007937005259840996
350,0.38591375946998596,0.5025569796562195,0.93,0.8,0.0007937005259840996
351,0.385146826505661,0.4993945062160492,0.93,0.81,0.0007937005259840996
352,0.3881511986255646,0.5037158131599426,0.93,0.8,0.0007937005259840996
353,0.3946048319339752,0.5012432336807251,0.93,0.81,0.0007937005259840996
354,0.38762202858924866,0.5037397742271423,0.93,0.82,0.0007937005259840996
355,0.3956089913845062,0.5045178532600403,0.92,0.82,0.0007937005259840996
356,0.3930624723434448,0.5034123063087463,0.92,0.81,0.0007937005259840996
357,0.3891422152519226,0.5072219371795654,0.93,0.8,0.0007937005259840996
358,0.3936247229576111,0.5046906471252441,0.93,0.8,0.0007937005259840996
359,0.3906349539756775,0.5005198121070862,0.93,0.82,0.0007937005259840996
360,0.3893270194530487,0.5001293420791626,0.93,0.82,0.0007937005259840996
361,0.39196890592575073,0.5002391338348389,0.92,0.82,0.0007937005259840996
362,0.3909231424331665,0.5012000799179077,0.92,0.82,0.0007937005259840996
363,0.38869109749794006,0.5045804977416992,0.93,0.8,0.0007937005259840996
364,0.3893101215362549,0.5054683089256287,0.93,0.8,0.0007937005259840996
365,0.39037826657295227,0.5025330781936646,0.93,0.81,0.0007937005259840996
366,0.38820216059684753,0.5004844069480896,0.93,0.82,0.0007937005259840996
367,0.3885732889175415,0.499603807926178,0.92,0.82,0.0007937005259840996
368,0.38916271924972534,0.4990774095058441,0.92,0.82,0.0007937005259840996
369,0.38864654302597046,0.49969086050987244,0.92,0.8,0.0007937005259840996
370,0.38753819465637207,0.5010128021240234,0.93,0.8,0.0007937005259840996
371,0.3882888853549957,0.5014963746070862,0.93,0.8,0.0007937005259840996
372,0.38748958706855774,0.5012696981430054,0.93,0.8,0.0007937005259840996
373,0.38727542757987976,0.501149594783783,0.93,0.82,0.0007937005259840996
374,0.3876290023326874,0.5012158751487732,0.93,0.82,0.0007937005259840996
375,0.3874090611934662,0.5014743208885193,0.93,0.8,0.0007937005259840996
376,0.38674575090408325,0.5017725229263306,0.93,0.8,0.0007937005259840996
377,0.3866884708404541,0.5017526149749756,0.93,0.8,0.0007937005259840996
378,0.38664281368255615,0.5013841390609741,0.93,0.8,0.0007937005259840996
379,0.38598430156707764,0.5007538795471191,0.93,0.81,0.0007937005259840996
380,0.38611170649528503,0.5005159378051758,0.93,0.81,0.0007937005259840996
381,0.3858686089515686,0.5006919503211975,0.93,0.8,0.0007937005259840996
382,0.3852827548980713,0.5006955862045288,0.93,0.8,0.0007937005259840996
383,0.3853469789028168,0.5003273487091064,0.93,0.8,0.0007937005259840996
384,0.38483691215515137,0.49967601895332336,0.93,0.81,0.0007937005259840996
385,0.3846852481365204,0.4991886019706726,0.93,0.81,0.0007937005259840996
386,0.384631872177124,0.4988214373588562,0.93,0.81,0.0007937005259840996
387,0.3842672109603882,0.4983440637588501,0.93,0.8,0.0007937005259840996
388,0.38421547412872314,0.4979443848133087,0.93,0.81,0.0007937005259840996
389,0.3840976357460022,0.49776074290275574,0.93,0.81,0.0007937005259840996
390,0.3839077651500702,0.4977150857448578,0.93,0.81,0.0007937005259840996
391,0.383946031332016,0.4978691041469574,0.93,0.81,0.0007937005259840996
392,0.38373932242393494,0.498315691947937,0.93,0.81,0.0007937005259840996
393,0.3837004005908966,0.49877768754959106,0.93,0.81,0.0007937005259840996
394,0.3836076259613037,0.4989255964756012,0.93,0.81,0.0007937005259840996
395,0.3834654986858368,0.49922293424606323,0.93,0.81,0.0007937005259840996
396,0.3834281265735626,0.5001429915428162,0.93,0.81,0.0007937005259840996
397,0.38324040174484253,0.5012953877449036,0.93,0.81,0.0007937005259840996
398,0.38318467140197754,0.5018483996391296,0.93,0.8,0.0007937005259840996
399,0.3831005096435547,0.5017640590667725,0.93,0.81,0.0007937005259840996
400,0.38301002979278564,0.5016762614250183,0.93,0.81,0.0007937005259840996
401,0.38299763202667236,0.50197434425354,0.93,0.81,0.0007937005259840996
402,0.38290682435035706,0.5024587512016296,0.93,0.8,0.0007937005259840996
403,0.38280925154685974,0.5025960206985474,0.93,0.8,0.0007937005259840996
404,0.38273540139198303,0.5021199584007263,0.93,0.8,0.0007937005259840996
405,0.3825981616973877,0.5013725161552429,0.93,0.81,0.0007937005259840996
406,0.38250136375427246,0.5009247064590454,0.93,0.81,0.0007937005259840996
407,0.3824273347854614,0.5009700655937195,0.93,0.81,0.0007937005259840996
408,0.3823167383670807,0.5011762976646423,0.93,0.81,0.0007937005259840996
409,0.38224560022354126,0.5010798573493958,0.93,0.81,0.0007937005259840996
410,0.38216865062713623,0.5006887912750244,0.93,0.81,0.0007937005259840996
411,0.3820655345916748,0.5004389882087708,0.93,0.81,0.0007937005259840996
412,0.3819878399372101,0.5006022453308105,0.93,0.81,0.0007937005259840996
413,0.38188809156417847,0.5010117888450623,0.93,0.81,0.0007937005259840996
414,0.3817916512489319,0.5012763738632202,0.93,0.81,0.0007937005259840996
415,0.3817192316055298,0.5012007355690002,0.93,0.81,0.0007937005259840996
416,0.38163718581199646,0.5009251832962036,0.93,0.81,0.0007937005259840996
417,0.3815605640411377,0.5007148385047913,0.93,0.81,0.0007937005259840996
418,0.38148894906044006,0.5006966590881348,0.93,0.81,0.0007937005259840996
419,0.3814012110233307,0.5007749795913696,0.93,0.81,0.0007937005259840996
420,0.38131290674209595,0.5007501840591431,0.94,0.81,0.0007937005259840996
421,0.3812328577041626,0.5005303025245667,0.94,0.81,0.0007937005259840996
422,0.381149560213089,0.5002393126487732,0.94,0.81,0.0007937005259840996
423,0.38107264041900635,0.5001025199890137,0.94,0.81,0.0007937005259840996
424,0.3809986114501953,0.5002074241638184,0.94,0.81,0.0007937005259840996
425,0.3809153735637665,0.5004116296768188,0.94,0.81,0.0007937005259840996
426,0.3808336555957794,0.5005061030387878,0.94,0.81,0.0007937005259840996
427,0.3807530999183655,0.5004276633262634,0.94,0.81,0.0007937005259840996
428,0.3806705176830292,0.5002844929695129,0.94,0.81,0.0007937005259840996
429,0.38059425354003906,0.5002155900001526,0.94,0.81,0.0007937005259840996
430,0.380519300699234,0.5002528429031372,0.94,0.81,0.0007937005259840996
431,0.3804400563240051,0.500308096408844,0.94,0.81,0.0007937005259840996
432,0.38036131858825684,0.5002690553665161,0.94,0.81,0.0007937005259840996
433,0.3802829682826996,0.500109076499939,0.94,0.81,0.0007937005259840996
434,0.38020390272140503,0.49991363286972046,0.94,0.81,0.0007937005259840996
435,0.38012808561325073,0.499796062707901,0.94,0.81,0.0007937005259840996
436,0.3800522983074188,0.49977919459342957,0.94,0.81,0.0007937005259840996
437,0.3799731135368347,0.49977776408195496,0.94,0.81,0.0007937005259840996
438,0.3798941671848297,0.4996975362300873,0.94,0.81,0.0007937005259840996
439,0.3798157572746277,0.4995267391204834,0.94,0.81,0.0007937005259840996
440,0.3797371983528137,0.49932998418807983,0.94,0.81,0.0007937005259840996
441,0.3796594738960266,0.49917879700660706,0.94,0.81,0.0007937005259840996
442,0.3795804977416992,0.4990909993648529,0.94,0.81,0.0007937005259840996
443,0.37949928641319275,0.49902617931365967,0.94,0.81,0.0007937005259840996
444,0.3794185519218445,0.49893084168434143,0.94,0.81,0.0007937005259840996
445,0.37933850288391113,0.49878737330436707,0.94,0.81,0.0007937005259840996
446,0.37925729155540466,0.49862396717071533,0.94,0.81,0.0007937005259840996
447,0.37917476892471313,0.49848270416259766,0.94,0.81,0.0007937005259840996
448,0.37909162044525146,0.49838122725486755,0.94,0.81,0.0007937005259840996
449,0.3790077567100525,0.4983036518096924,0.94,0.81,0.0007937005259840996
450,0.37892356514930725,0.4982204735279083,0.94,0.81,0.0007937005259840996
451,0.3788383901119232,0.49811214208602905,0.94,0.81,0.0007937005259840996
452,0.37875157594680786,0.4979816675186157,0.94,0.81,0.0007937005259840996
453,0.3786640167236328,0.49784931540489197,0.94,0.81,0.0007937005259840996
454,0.37857627868652344,0.49773362278938293,0.94,0.81,0.0007937005259840996
455,0.37848734855651855,0.4976377487182617,0.94,0.81,0.0007937005259840996
456,0.3783968985080719,0.4975501000881195,0.94,0.81,0.0007937005259840996
457,0.378305584192276,0.4974570572376251,0.94,0.81,0.0007937005259840996
458,0.3782137632369995,0.4973529577255249,0.94,0.81,0.0007937005259840996
459,0.3781207203865051,0.4972411096096039,0.94,0.81,0.0007937005259840996
460,0.37802624702453613,0.4971276521682739,0.94,0.81,0.0007937005259840996
461,0.37793076038360596,0.4970167875289917,0.94,0.81,0.0007937005259840996
462,0.37783434987068176,0.496908575296402,0.94,0.81,0.0007937005259840996
463,0.37773653864860535,0.4968005120754242,0.94,0.81,0.0007937005259840996
464,0.3776370882987976,0.4966903328895569,0.94,0.81,0.0007937005259840996
465,0.37753626704216003,0.496578574180603,0.94,0.82,0.0007937005259840996
466,0.3774341940879822,0.49646690487861633,0.94,0.82,0.0007937005259840996
467,0.3773302733898163,0.496354877948761,0.94,0.82,0.0007937005259840996
468,0.37722453474998474,0.4962400794029236,0.94,0.82,0.0007937005259840996
469,0.3771168887615204,0.4961194694042206,0.94,0.82,0.0007937005259840996
470,0.37700721621513367,0.4959925711154938,0.94,0.82,0.0007937005259840996
471,0.3768952190876007,0.49586090445518494,0.94,0.82,0.0007937005259840996
472,0.37678059935569763,0.4957270920276642,0.94,0.82,0.0007937005259840996
473,0.3766632378101349,0.4955923557281494,0.94,0.82,0.0007937005259840996
474,0.3765428960323334,0.49545520544052124,0.94,0.82,0.0007937005259840996
475,0.37641918659210205,0.49531251192092896,0.94,0.82,0.0007937005259840996
476,0.37629199028015137,0.49516093730926514,0.94,0.82,0.0007937005259840996
477,0.3761608600616455,0.49499833583831787,0.94,0.82,0.0007937005259840996
478,0.37602555751800537,0.4948241114616394,0.94,0.82,0.0007937005259840996
479,0.37588581442832947,0.4946376085281372,0.94,0.82,0.0007937005259840996
480,0.3757413923740387,0.4944373667240143,0.94,0.82,0.0007937005259840996
481,0.3755919933319092,0.49422210454940796,0.94,0.82,0.0007937005259840996
482,0.375437468290329,0.49399134516716003,0.94,0.82,0.0007937005259840996
483,0.37527787685394287,0.49374645948410034,0.94,0.82,0.0007937005259840996
484,0.37511298060417175,0.49348780512809753,0.94,0.82,0.0007937005259840996
485,0.3749428689479828,0.4932129383087158,0.94,0.82,0.0007937005259840996
486,0.3747676610946655,0.4929162561893463,0.94,0.82,0.0007937005259840996
487,0.3745872974395752,0.49259135127067566,0.94,0.82,0.0007937005259840996
488,0.37440186738967896,0.49223363399505615,0.94,0.82,0.0007937005259840996
489,0.3742111325263977,0.4918387532234192,0.94,0.82,0.0007937005259840996
490,0.3740144670009613,0.4913979768753052,0.94,0.82,0.0007937005259840996
491,0.3738100826740265,0.4908888339996338,0.94,0.82,0.0007937005259840996
492,0.3735934793949127,0.4902651309967041,0.94,0.82,0.0007937005259840996
493,0.3733535706996918,0.4894469976425171,0.94,0.82,0.0007937005259840996
494,0.3730655908584595,0.4883093237876892,0.94,0.82,0.0007937005259840996
495,0.37273970246315,0.4871343672275543,0.95,0.82,0.0007937005259840996
496,0.37247997522354126,0.4872601330280304,0.95,0.82,0.0007937005259840996
497,0.37198105454444885,0.4872518479824066,0.95,0.82,0.0007937005259840996
498,0.3711678683757782,0.4870903491973877,0.95,0.83,0.0007937005259840996
499,0.3786345422267914,0.4900875985622406,0.93,0.83,0.0007937005259840996
500,0.39401790499687195,0.4861873388290405,0.92,0.82,0.0007937005259840996
501,0.3841699957847595,0.47969311475753784,0.93,0.84,0.0007937005259840996
502,0.3963600993156433,0.48959800601005554,0.91,0.83,0.0007937005259840996
503,0.389499306678772,0.4980534613132477,0.93,0.8,0.0007937005259840996
504,0.3941294848918915,0.48691612482070923,0.93,0.83,0.0007937005259840996
505,0.3844165802001953,0.48115062713623047,0.93,0.84,0.0007937005259840996
506,0.3954397439956665,0.5018570423126221,0.93,0.8,0.0007937005259840996
507,0.3885325491428375,0.4941854178905487,0.93,0.82,0.0007937005259840996
508,0.43011474609375,0.49538081884384155,0.87,0.82,0.0007937005259840996
509,0.4423419237136841,0.5024918913841248,0.86,0.81,0.0007937005259840996
510,0.3975878953933716,0.49791157245635986,0.92,0.81,0.0007937005259840996
511,0.4114234149456024,0.4969361126422882,0.91,0.81,0.0007937005259840996
512,0.42182856798171997,0.49095138907432556,0.89,0.81,0.0007937005259840996
513,0.3972787857055664,0.5045473575592041,0.91,0.8,0.0007937005259840996
514,0.4226914942264557,0.502057671546936,0.89,0.8,0.0007937005259840996
515,0.3929953873157501,0.5200725793838501,0.91,0.79,0.0007937005259840996
516,0.403369665145874,0.5413180589675903,0.92,0.77,0.0007937005259840996
517,0.4126865863800049,0.5409902930259705,0.91,0.76,0.0007937005259840996
518,0.4110966920852661,0.5178609490394592,0.91,0.79,0.0007937005259840996
519,0.39483195543289185,0.5004857778549194,0.93,0.81,0.0007937005259840996
520,0.3965737819671631,0.4924033284187317,0.91,0.82,0.0007937005259840996
521,0.4140631854534149,0.4803265631198883,0.89,0.83,0.0007937005259840996
522,0.40974003076553345,0.4808846414089203,0.9,0.84,0.0007937005259840996
523,0.4054904878139496,0.4986528754234314,0.9,0.81,0.0007937005259840996
524,0.4029865264892578,0.5021816492080688,0.92,0.82,0.0007937005259840996
525,0.41766926646232605,0.492715060710907,0.89,0.82,0.0007937005259840996
526,0.4010779559612274,0.4828478991985321,0.92,0.84,0.0007937005259840996
527,0.40749436616897583,0.48426610231399536,0.9,0.83,0.0007937005259840996
528,0.4119454324245453,0.4821998178958893,0.89,0.83,0.0007937005259840996
529,0.4024195373058319,0.49641257524490356,0.92,0.81,0.0007937005259840996
530,0.401143878698349,0.5022314190864563,0.92,0.81,0.0007937005259840996
531,0.40785762667655945,0.49915122985839844,0.9,0.81,0.0007937005259840996
532,0.40347176790237427,0.48568642139434814,0.92,0.83,0.0007937005259840996
533,0.40146639943122864,0.4798023998737335,0.92,0.84,0.0007937005259840996
534,0.40400028228759766,0.4801228642463684,0.9,0.84,0.0007937005259840996
535,0.40412381291389465,0.48061805963516235,0.9,0.84,0.0007937005259840996
536,0.40133368968963623,0.4851747453212738,0.92,0.82,0.0007937005259840996
537,0.3989342451095581,0.4896671772003174,0.92,0.82,0.0007937005259840996
538,0.4015462100505829,0.48833516240119934,0.92,0.82,0.0007937005259840996
539,0.40096941590309143,0.4840523898601532,0.92,0.82,0.0007937005259840996
540,0.3983428180217743,0.4823400378227234,0.92,0.83,0.0007937005259840996
541,0.39930665493011475,0.4817460775375366,0.92,0.83,0.0007937005259840996
542,0.39986151456832886,0.47991833090782166,0.92,0.84,0.0007937005259840996
543,0.398161381483078,0.4810195565223694,0.92,0.83,0.0007937005259840996
544,0.3970249593257904,0.4842122197151184,0.92,0.82,0.0007937005259840996
545,0.39735889434814453,0.48554620146751404,0.92,0.82,0.0007937005259840996
546,0.39759188890457153,0.4836985766887665,0.92,0.82,0.0007937005259840996
547,0.39667847752571106,0.48033520579338074,0.92,0.83,0.0007937005259840996
548,0.3960598111152649,0.47777560353279114,0.92,0.83,0.0007937005259840996
549,0.3960653245449066,0.47663429379463196,0.92,0.83,0.0007937005259840996
550,0.39615073800086975,0.47653716802597046,0.92,0.83,0.0007937005259840996
551,0.3958933353424072,0.4773724377155304,0.92,0.83,0.0007937005259840996
552,0.3953063488006592,0.4791898727416992,0.92,0.82,0.0007937005259840996
553,0.39464324712753296,0.4813501238822937,0.92,0.83,0.0007937005259840996
554,0.39412033557891846,0.48266711831092834,0.92,0.83,0.0007937005259840996
555,0.3937256336212158,0.48281678557395935,0.92,0.83,0.0007937005259840996
556,0.3931358754634857,0.4820200204849243,0.92,0.83,0.0007937005259840996
557,0.39253175258636475,0.4811106026172638,0.93,0.83,0.0007937005259840996
558,0.398222416639328,0.5313050746917725,0.92,0.77,0.0007937005259840996
559,0.47084954380989075,0.6186735033988953,0.84,0.69,0.0007937005259840996
560,0.6533223986625671,0.5268869400024414,0.64,0.8,0.0007937005259840996
561,0.46182265877723694,0.47716081142425537,0.85,0.84,0.0007937005259840996
562,0.395009309053421,0.49813365936279297,0.92,0.81,0.0007937005259840996
563,0.4409656822681427,0.4898258447647095,0.87,0.82,0.0007937005259840996
564,0.4235018789768219,0.4886184632778168,0.88,0.82,0.0007937005259840996
565,0.40277087688446045,0.48339661955833435,0.91,0.83,0.0007937005259840996
566,0.3980391323566437,0.4941222071647644,0.92,0.81,0.0007937005259840996
567,0.39779871702194214,0.5031353235244751,0.92,0.81,0.0007937005259840996
568,0.39896389842033386,0.49951863288879395,0.91,0.81,0.0007937005259840996
569,0.39336299896240234,0.4901425540447235,0.93,0.83,0.0007937005259840996
570,0.39159488677978516,0.48589134216308594,0.92,0.82,0.0007937005259840996
571,0.3894307613372803,0.5062226057052612,0.92,0.8,0.0007937005259840996
572,0.4184361696243286,0.5039138793945312,0.88,0.81,0.0007937005259840996
573,0.4256128668785095,0.5029945969581604,0.88,0.81,0.0007937005259840996
574,0.42595240473747253,0.4993630349636078,0.88,0.82,0.0007937005259840996
575,0.42082443833351135,0.49742794036865234,0.88,0.82,0.0007937005259840996
576,0.4085996747016907,0.5125352740287781,0.91,0.8,0.0007937005259840996
577,0.393744558095932,0.5097464919090271,0.92,0.8,0.0007937005259840996
578,0.3862401843070984,0.4948791563510895,0.94,0.82,0.0007937005259840996
579,0.3852086365222931,0.4905015826225281,0.93,0.82,0.0007937005259840996
580,0.3893958032131195,0.48626193404197693,0.92,0.83,0.0007937005259840996
581,0.40357744693756104,0.4851669669151306,0.9,0.83,0.0007937005259840996
582,0.39431652426719666,0.48729851841926575,0.92,0.83,0.0007937005259840996
583,0.3853764235973358,0.49473845958709717,0.92,0.82,0.0007937005259840996
584,0.37961137294769287,0.4979765713214874,0.93,0.8,0.0007937005259840996
585,0.3813205361366272,0.5124821066856384,0.94,0.79,0.0007937005259840996
586,0.3892242908477783,0.509599506855011,0.93,0.79,0.0007937005259840996
587,0.38511985540390015,0.4958380460739136,0.93,0.82,0.0007937005259840996
588,0.3791879713535309,0.48799335956573486,0.94,0.83,0.0007937005259840996
589,0.37770146131515503,0.48647117614746094,0.95,0.83,0.0007937005259840996
590,0.3767392039299011,0.48300254344940186,0.95,0.84,0.0007937005259840996
591,0.37572306394577026,0.48076510429382324,0.95,0.83,0.0007937005259840996
592,0.375741183757782,0.48045799136161804,0.95,0.83,0.0007937005259840996
593,0.38017359375953674,0.4835354685783386,0.94,0.84,0.0007937005259840996
594,0.381712406873703,0.4812837243080139,0.94,0.83,0.0007937005259840996
595,0.3766288459300995,0.49975231289863586,0.94,0.81,0.0007937005259840996
596,0.3845060467720032,0.5051753520965576,0.94,0.81,0.0007937005259840996
597,0.3857041597366333,0.5081481337547302,0.93,0.8,0.0007937005259840996
598,0.38092243671417236,0.5071020722389221,0.93,0.8,0.0007937005259840996
599,0.38043898344039917,0.5002014636993408,0.94,0.8,0.0006299605249474364
600,0.38489872217178345,0.49937498569488525,0.93,0.8,0.0006299605249474364
601,0.3813510239124298,0.4937189221382141,0.93,0.82,0.0006299605249474364
602,0.3768998682498932,0.48378700017929077,0.94,0.83,0.0006299605249474364
603,0.37376829981803894,0.4811886250972748,0.95,0.83,0.0006299605249474364
604,0.37397661805152893,0.4823066294193268,0.94,0.83,0.0006299605249474364
605,0.37584877014160156,0.48203137516975403,0.94,0.83,0.0006299605249474364
606,0.3764897286891937,0.4803650677204132,0.94,0.83,0.0006299605249474364
607,0.3746083080768585,0.4788277745246887,0.94,0.84,0.0006299605249474364
608,0.37236690521240234,0.47950974106788635,0.95,0.83,0.0006299605249474364
609,0.37185195088386536,0.4806865453720093,0.95,0.83,0.0006299605249474364
610,0.3729773759841919,0.480758398771286,0.95,0.83,0.0006299605249474364
611,0.37345772981643677,0.4793202877044678,0.95,0.84,0.0006299605249474364
612,0.3719559907913208,0.47667205333709717,0.95,0.84,0.0006299605249474364
613,0.37004074454307556,0.47614628076553345,0.95,0.84,0.0006299605249474364
614,0.36908847093582153,0.4775867462158203,0.95,0.83,0.0006299605249474364
615,0.3692742884159088,0.4783543050289154,0.95,0.83,0.0006299605249474364
616,0.3695354461669922,0.4769819378852844,0.95,0.84,0.0006299605249474364
617,0.3683485686779022,0.47510895133018494,0.95,0.84,0.0006299605249474364
618,0.368003249168396,0.47354748845100403,0.95,0.84,0.0006299605249474364
619,0.3681374490261078,0.4728110432624817,0.95,0.84,0.0006299605249474364
620,0.36840206384658813,0.47282570600509644,0.95,0.84,0.0006299605249474364
621,0.3684719204902649,0.4731156826019287,0.95,0.84,0.0006299605249474364
622,0.36825504899024963,0.47358080744743347,0.95,0.84,0.0006299605249474364
623,0.3679366409778595,0.474292516708374,0.95,0.84,0.0006299605249474364
624,0.36773261427879333,0.475037157535553,0.95,0.84,0.0006299605249474364
625,0.36770695447921753,0.4754980504512787,0.95,0.84,0.0006299605249474364
626,0.3677695393562317,0.4755009412765503,0.95,0.84,0.0006299605249474364
627,0.36776280403137207,0.4750916361808777,0.95,0.84,0.0006299605249474364
628,0.3676060736179352,0.4744751453399658,0.95,0.84,0.0006299605249474364
629,0.3673665225505829,0.4738729000091553,0.95,0.84,0.0006299605249474364
630,0.36717307567596436,0.47344741225242615,0.95,0.84,0.0006299605249474364
631,0.3671068251132965,0.4732147455215454,0.95,0.84,0.0006299605249474364
632,0.36713847517967224,0.47300514578819275,0.95,0.84,0.0006299605249474364
633,0.3671320080757141,0.4727259576320648,0.95,0.84,0.0006299605249474364
634,0.3670059144496918,0.472520649433136,0.95,0.84,0.0006299605249474364
635,0.36684712767601013,0.4724978506565094,0.95,0.84,0.0006299605249474364
636,0.36674919724464417,0.4725770056247711,0.95,0.84,0.0006299605249474364
637,0.36671504378318787,0.47262677550315857,0.95,0.84,0.0006299605249474364
638,0.3666987717151642,0.47256770730018616,0.95,0.84,0.0006299605249474364
639,0.3666592836380005,0.4723784625530243,0.95,0.84,0.0006299605249474364
640,0.36658740043640137,0.47207754850387573,0.95,0.84,0.0006299605249474364
641,0.3665023148059845,0.4717136025428772,0.95,0.84,0.0006299605249474364
642,0.36643078923225403,0.4713515341281891,0.95,0.84,0.0006299605249474364
643,0.3663858473300934,0.47104915976524353,0.95,0.84,0.0006299605249474364
644,0.3663606643676758,0.47083812952041626,0.95,0.84,0.0006299605249474364
645,0.3663366436958313,0.4707299470901489,0.95,0.84,0.0006299605249474364
646,0.36629876494407654,0.4707273244857788,0.95,0.84,0.0006299605249474364
647,0.3662462532520294,0.4708198308944702,0.95,0.84,0.0006299605249474364
648,0.3661900758743286,0.47097504138946533,0.95,0.84,0.0006299605249474364
649,0.36614149808883667,0.4711441099643707,0.95,0.84,0.0006299605249474364
650,0.3661049008369446,0.4712791442871094,0.95,0.84,0.0006299605249474364
651,0.3660763204097748,0.47134727239608765,0.95,0.84,0.0006299605249474364
652,0.3660484254360199,0.4713346064090729,0.95,0.84,0.0006299605249474364
653,0.3660156726837158,0.4712445139884949,0.95,0.84,0.0006299605249474364
654,0.36597758531570435,0.47109299898147583,0.95,0.84,0.0006299605249474364
655,0.36593765020370483,0.47090572118759155,0.95,0.84,0.0006299605249474364
656,0.36590054631233215,0.47071290016174316,0.95,0.84,0.0006299605249474364
657,0.36586880683898926,0.4705427885055542,0.95,0.84,0.0006299605249474364
658,0.36584171652793884,0.4704170227050781,0.95,0.84,0.0006299605249474364
659,0.36581650376319885,0.4703468084335327,0.95,0.84,0.0006299605249474364
660,0.36579009890556335,0.47033292055130005,0.95,0.84,0.0006299605249474364
661,0.3657614588737488,0.47036656737327576,0.95,0.84,0.0006299605249474364
662,0.3657316565513611,0.4704321026802063,0.95,0.84,0.0006299605249474364
663,0.3657027781009674,0.4705088436603546,0.95,0.84,0.0006299605249474364
664,0.36567628383636475,0.4705766439437866,0.95,0.84,0.0006299605249474364
665,0.3656524419784546,0.4706190526485443,0.95,0.84,0.0006299605249474364
666,0.365630179643631,0.47062623500823975,0.95,0.84,0.0006299605249474364
667,0.3656081259250641,0.4705953299999237,0.95,0.84,0.0006299605249474364
668,0.36558544635772705,0.47052958607673645,0.95,0.84,0.0006299605249474364
669,0.3655621409416199,0.47043803334236145,0.95,0.84,0.0006299605249474364
670,0.36553889513015747,0.4703328311443329,0.95,0.84,0.0006299605249474364
671,0.3655165731906891,0.4702274799346924,0.95,0.84,0.0006299605249474364
672,0.3654956817626953,0.4701344668865204,0.95,0.84,0.0006299605249474364
673,0.36547592282295227,0.470063179731369,0.95,0.84,0.0006299605249474364
674,0.36545658111572266,0.4700186252593994,0.95,0.84,0.0006299605249474364
675,0.36543726921081543,0.4700009226799011,0.95,0.84,0.0006299605249474364
676,0.3654177188873291,0.4700058698654175,0.95,0.84,0.0006299605249474364
677,0.3653980493545532,0.4700259268283844,0.95,0.84,0.0006299605249474364
678,0.365378737449646,0.47005167603492737,0.95,0.84,0.0006299605249474364
679,0.3653601109981537,0.47007426619529724,0.95,0.84,0.0006299605249474364
680,0.3653421700000763,0.4700861871242523,0.95,0.84,0.0006299605249474364
681,0.3653247356414795,0.4700826406478882,0.95,0.84,0.0006299605249474364
682,0.36530745029449463,0.4700615704059601,0.95,0.84,0.0006299605249474364
683,0.36529025435447693,0.47002482414245605,0.95,0.84,0.0006299605249474364
684,0.36527305841445923,0.46997591853141785,0.95,0.84,0.0006299605249474364
685,0.36525604128837585,0.46992024779319763,0.95,0.84,0.0006299605249474364
686,0.3652394115924835,0.4698641896247864,0.95,0.84,0.0006299605249474364
687,0.3652231693267822,0.46981364488601685,0.95,0.84,0.0006299605249474364
688,0.3652072548866272,0.46977299451828003,0.95,0.84,0.0006299605249474364
689,0.3651916980743408,0.46974509954452515,0.95,0.84,0.0006299605249474364
690,0.36517617106437683,0.46973028779029846,0.95,0.84,0.0006299605249474364
691,0.3651607930660248,0.4697270691394806,0.95,0.84,0.0006299605249474364
692,0.36514556407928467,0.46973198652267456,0.95,0.84,0.0006299605249474364
693,0.36513057351112366,0.46974101662635803,0.95,0.84,0.0006299605249474364
694,0.3651157319545746,0.4697498381137848,0.95,0.84,0.0006299605249474364
695,0.3651012182235718,0.46975475549697876,0.95,0.84,0.0006299605249474364
696,0.36508697271347046,0.4697530269622803,0.95,0.84,0.0006299605249474364
697,0.36507290601730347,0.46974337100982666,0.95,0.84,0.0006299605249474364
698,0.3650589883327484,0.46972590684890747,0.95,0.84,0.0006299605249474364
699,0.3650451600551605,0.4697021245956421,0.95,0.84,0.0006299605249474364
700,0.36503154039382935,0.4696744978427887,0.95,0.84,0.0006299605249474364
701,0.3650180697441101,0.46964552998542786,0.95,0.84,0.0006299605249474364
702,0.3650048077106476,0.46961838006973267,0.95,0.84,0.0006299605249474364
703,0.3649917542934418,0.4695950746536255,0.95,0.84,0.0006299605249474364
704,0.3649788796901703,0.469577431678772,0.95,0.84,0.0006299605249474364
705,0.36496612429618835,0.4695659577846527,0.95,0.84,0.0006299605249474364
706,0.36495357751846313,0.4695603549480438,0.95,0.84,0.0006299605249474364
707,0.3649410903453827,0.4695592522621155,0.95,0.84,0.0006299605249474364
708,0.3649287819862366,0.4695608913898468,0.95,0.84,0.0006299605249474364
709,0.3649166524410248,0.46956339478492737,0.95,0.84,0.0006299605249474364
710,0.3649045526981354,0.4695647954940796,0.95,0.84,0.0006299605249474364
711,0.36489272117614746,0.46956348419189453,0.95,0.84,0.0006299605249474364
712,0.36488106846809387,0.46955856680870056,0.95,0.84,0.0006299605249474364
713,0.36486950516700745,0.4695497751235962,0.95,0.84,0.0006299605249474364
714,0.36485806107521057,0.46953749656677246,0.95,0.84,0.0006299605249474364
715,0.36484673619270325,0.469522625207901,0.95,0.84,0.0006299605249474364
716,0.3648354411125183,0.469506174325943,0.95,0.84,0.0006299605249474364
717,0.36482441425323486,0.4694897532463074,0.95,0.84,0.0006299605249474364
718,0.3648134469985962,0.4694744050502777,0.95,0.84,0.0006299605249474364
719,0.36480262875556946,0.46946120262145996,0.95,0.84,0.0006299605249474364
720,0.36479195952415466,0.46945086121559143,0.95,0.84,0.0006299605249474364
721,0.36478137969970703,0.46944329142570496,0.95,0.84,0.0006299605249474364
722,0.36477088928222656,0.4694384038448334,0.95,0.84,0.0006299605249474364
723,0.36476054787635803,0.46943533420562744,0.95,0.84,0.0006299605249474364
724,0.36475032567977905,0.46943336725234985,0.95,0.84,0.0006299605249474364
725,0.36474019289016724,0.4694315195083618,0.95,0.84,0.0006299605249474364
726,0.3647301197052002,0.4694291353225708,0.95,0.84,0.0006299605249474364
727,0.3647202253341675,0.4694253206253052,0.95,0.84,0.0006299605249474364
728,0.36471039056777954,0.4694198966026306,0.95,0.84,0.0006299605249474364
729,0.36470070481300354,0.46941283345222473,0.95,0.84,0.0006299605249474364
730,0.3646911382675171,0.4694042205810547,0.95,0.84,0.0006299605249474364
731,0.3646816313266754,0.46939465403556824,0.95,0.84,0.0006299605249474364
732,0.3646722137928009,0.4693845510482788,0.95,0.84,0.0006299605249474364
733,0.36466285586357117,0.46937456727027893,0.95,0.84,0.0006299605249474364
734,0.36465367674827576,0.4693654179573059,0.95,0.84,0.0006299605249474364
735,0.36464443802833557,0.4693574607372284,0.95,0.84,0.0006299605249474364
736,0.36463549733161926,0.469350665807724,0.95,0.84,0.0006299605249474364
737,0.36462652683258057,0.4693455398082733,0.95,0.84,0.0006299605249474364
738,0.36461764574050903,0.46934154629707336,0.95,0.84,0.0006299605249474364
739,0.36460891366004944,0.46933841705322266,0.95,0.84,0.0006299605249474364
740,0.36460021138191223,0.4693358540534973,0.95,0.84,0.0006299605249474364
741,0.3645915985107422,0.4693334996700287,0.95,0.84,0.0006299605249474364
742,0.36458316445350647,0.46933090686798096,0.95,0.84,0.0006299605249474364
743,0.364574670791626,0.46932774782180786,0.95,0.84,0.0006299605249474364
744,0.36456626653671265,0.4693237543106079,0.95,0.84,0.0006299605249474364
745,0.36455804109573364,0.46931925415992737,0.95,0.84,0.0006299605249474364
746,0.3645499050617218,0.4693140387535095,0.95,0.84,0.0006299605249474364
747,0.36454182863235474,0.4693085849285126,0.95,0.84,0.0006299605249474364
748,0.36453378200531006,0.46930286288261414,0.95,0.84,0.0006299605249474364
749,0.36452576518058777,0.46929728984832764,0.95,0.84,0.0006299605249474364
750,0.3645178973674774,0.4692922532558441,0.95,0.84,0.0006299605249474364
751,0.36451008915901184,0.4692877233028412,0.95,0.84,0.0006299605249474364
752,0.3645023703575134,0.46928393840789795,0.95,0.84,0.0006299605249474364
753,0.3644946813583374,0.46928077936172485,0.95,0.84,0.0006299605249474364
754,0.3644871115684509,0.4692783057689667,0.95,0.84,0.0006299605249474364
755,0.36447960138320923,0.4692763388156891,0.95,0.84,0.0006299605249474364
756,0.3644721210002899,0.4692746698856354,0.95,0.84,0.0006299605249474364
757,0.36446473002433777,0.469273179769516,0.95,0.84,0.0006299605249474364
758,0.3644574284553528,0.46927157044410706,0.95,0.84,0.0006299605249474364
759,0.3644500970840454,0.46926987171173096,0.95,0.84,0.0006299605249474364
760,0.36444297432899475,0.46926796436309814,0.95,0.84,0.0006299605249474364
761,0.3644357919692993,0.4692656695842743,0.95,0.84,0.0006299605249474364
762,0.3644287586212158,0.4692632555961609,0.95,0.84,0.0006299605249474364
763,0.3644218146800995,0.4692607820034027,0.95,0.84,0.0006299605249474364
764,0.364414781332016,0.46925827860832214,0.95,0.84,0.0006299605249474364
765,0.3644079864025116,0.4692559540271759,0.95,0.84,0.0006299605249474364
766,0.3644011318683624,0.46925389766693115,0.95,0.84,0.0006299605249474364
767,0.3643943667411804,0.4692520797252655,0.95,0.84,0.0006299605249474364
768,0.3643876910209656,0.46925076842308044,0.95,0.84,0.0006299605249474364
769,0.36438101530075073,0.4692498743534088,0.95,0.84,0.0006299605249474364
770,0.36437439918518066,0.4692493677139282,0.95,0.84,0.0006299605249474364
771,0.36436790227890015,0.4692491292953491,0.95,0.84,0.0006299605249474364
772,0.36436140537261963,0.4692491292953491,0.95,0.84,0.0006299605249474364
773,0.3643549680709839,0.4692493677139282,0.95,0.84,0.0006299605249474364
774,0.36434856057167053,0.4692496359348297,0.95,0.84,0.0006299605249474364
775,0.36434224247932434,0.46924999356269836,0.95,0.84,0.0006299605249474364
776,0.3643360137939453,0.46925029158592224,0.95,0.84,0.0006299605249474364
777,0.3643297851085663,0.4692505896091461,0.95,0.84,0.0006299605249474364
778,0.36432352662086487,0.46925097703933716,0.95,0.84,0.0006299605249474364
779,0.36431747674942017,0.4692513346672058,0.95,0.84,0.0006299605249474364
780,0.3643113672733307,0.469251811504364,0.95,0.84,0.0006299605249474364
781,0.36430537700653076,0.46925240755081177,0.95,0.84,0.0006299605249474364
782,0.36429938673973083,0.4692532420158386,0.95,0.84,0.0006299605249474364
783,0.3642934560775757,0.46925434470176697,0.95,0.84,0.0006299605249474364
784,0.36428752541542053,0.46925580501556396,0.95,0.84,0.0006299605249474364
785,0.36428168416023254,0.4692574739456177,0.95,0.84,0.0006299605249474364
786,0.36427590250968933,0.4692594110965729,0.95,0.84,0.0006299605249474364
787,0.3642701208591461,0.46926161646842957,0.95,0.84,0.0006299605249474364
788,0.36426445841789246,0.4692639410495758,0.95,0.84,0.0006299605249474364
789,0.3642587959766388,0.4692665934562683,0.95,0.84,0.0006299605249474364
790,0.36425313353538513,0.4692693054676056,0.95,0.84,0.0006299605249474364
791,0.36424750089645386,0.4692721664905548,0.95,0.84,0.0006299605249474364
792,0.36424198746681213,0.46927517652511597,0.95,0.84,0.0006299605249474364
793,0.36423641443252563,0.4692781865596771,0.95,0.84,0.0006299605249474364
794,0.3642309904098511,0.46928131580352783,0.95,0.84,0.0006299605249474364
795,0.3642255365848541,0.4692845046520233,0.95,0.84,0.0006299605249474364
796,0.36422020196914673,0.46928778290748596,0.95,0.84,0.0006299605249474364
797,0.36421477794647217,0.46929123997688293,0.95,0.84,0.0006299605249474364
798,0.36420944333076477,0.469294935464859,0.95,0.84,0.0006299605249474364
799,0.3642041087150574,0.46929866075515747,0.95,0.84,0.0006299605249474364
800,0.3641989231109619,0.46930259466171265,0.95,0.84,0.0006299605249474364
801,0.36419373750686646,0.4693068563938141,0.95,0.84,0.0006299605249474364
802,0.36418846249580383,0.4693111181259155,0.95,0.84,0.0006299605249474364
803,0.36418333649635315,0.46931561827659607,0.95,0.84,0.0006299605249474364
804,0.36417827010154724,0.469320148229599,0.95,0.84,0.0006299605249474364
805,0.36417317390441895,0.4693247973918915,0.95,0.84,0.0006299605249474364
806,0.36416804790496826,0.4693295359611511,0.95,0.84,0.0006299605249474364
807,0.36416301131248474,0.4693342447280884,0.95,0.84,0.0006299605249474364
808,0.3641580641269684,0.46933919191360474,0.95,0.84,0.0006299605249474364
809,0.36415308713912964,0.4693438708782196,0.95,0.84,0.0006299605249474364
810,0.3641481399536133,0.4693487584590912,0.95,0.84,0.0006299605249474364
811,0.3641432225704193,0.46935340762138367,0.95,0.84,0.0006299605249474364
812,0.36413830518722534,0.4693581461906433,0.95,0.84,0.0006299605249474364
813,0.36413341760635376,0.46936285495758057,0.95,0.84,0.0006299605249474364
814,0.36412861943244934,0.46936753392219543,0.95,0.84,0.0006299605249474364
815,0.36412379145622253,0.4693721830844879,0.95,0.84,0.0006299605249474364
816,0.3641190826892853,0.4693768620491028,0.95,0.84,0.0006299605249474364
817,0.36411431431770325,0.46938133239746094,0.95,0.84,0.0006299605249474364
818,0.3641095459461212,0.4693858325481415,0.95,0.84,0.0006299605249474364
819,0.36410483717918396,0.469390332698822,0.95,0.84,0.0006299605249474364
820,0.3641001582145691,0.46939465403556824,0.95,0.84,0.0006299605249474364
821,0.3640955686569214,0.46939894556999207,0.95,0.84,0.0006299605249474364
822,0.36409083008766174,0.46940311789512634,0.95,0.84,0.0006299605249474364
823,0.3640862703323364,0.46940723061561584,0.95,0.84,0.0006299605249474364
824,0.36408162117004395,0.4694111943244934,0.95,0.84,0.0006299605249474364
825,0.36407706141471863,0.46941515803337097,0.95,0.84,0.0006299605249474364
826,0.3640725016593933,0.46941906213760376,0.95,0.84,0.0006299605249474364
827,0.364067941904068,0.4694229066371918,0.95,0.84,0.0006299605249474364
828,0.3640635013580322,0.4694266617298126,0.95,0.84,0.0006299605249474364
829,0.3640590012073517,0.469430536031723,0.95,0.84,0.0006299605249474364
830,0.36405453085899353,0.46943429112434387,0.95,0.84,0.0006299605249474364
831,0.3640500605106354,0.46943819522857666,0.95,0.84,0.0006299605249474364
832,0.3640455901622772,0.469442218542099,0.95,0.84,0.0006299605249474364
833,0.36404114961624146,0.4694463014602661,0.95,0.84,0.0006299605249474364
834,0.3640367090702057,0.46945056319236755,0.95,0.84,0.0006299605249474364
835,0.36403223872184753,0.4694550335407257,0.95,0.84,0.0006299605249474364
836,0.36402785778045654,0.46945980191230774,0.95,0.84,0.0006299605249474364
837,0.36402347683906555,0.4694647490978241,0.95,0.84,0.0006299605249474364
838,0.3640190362930298,0.4694700539112091,0.95,0.84,0.0006299605249474364
839,0.36401471495628357,0.46947574615478516,0.95,0.84,0.0006299605249474364
840,0.3640102744102478,0.4694817364215851,0.95,0.84,0.0006299605249474364
841,0.3640058636665344,0.4694882333278656,0.95,0.84,0.0006299605249474364
842,0.3640015423297882,0.4694952368736267,0.95,0.84,0.0006299605249474364
843,0.36399707198143005,0.46950283646583557,0.95,0.84,0.0006299605249474364
844,0.3639926612377167,0.4695110023021698,0.95,0.84,0.0006299605249474364
845,0.3639882802963257,0.46951988339424133,0.95,0.84,0.0006299605249474364
846,0.3639838397502899,0.46952950954437256,0.95,0.84,0.0006299605249474364
847,0.36397942900657654,0.4695400297641754,0.95,0.84,0.0006299605249474364
848,0.3639749586582184,0.4695512056350708,0.95,0.84,0.0006299605249474364
849,0.36397045850753784,0.4695635735988617,0.95,0.84,0.0006299605249474364
850,0.3639659881591797,0.46957698464393616,0.95,0.84,0.0006299605249474364
851,0.36396145820617676,0.46959149837493896,0.95,0.84,0.0006299605249474364
852,0.36395689845085144,0.4696072041988373,0.95,0.84,0.0006299605249474364
853,0.3639523983001709,0.4696243703365326,0.95,0.84,0.0006299605249474364
854,0.3639477491378784,0.46964287757873535,0.95,0.84,0.0006299605249474364
855,0.3639431297779083,0.4696629047393799,0.95,0.84,0.0006299605249474364
856,0.363938570022583,0.4696844816207886,0.95,0.84,0.0006299605249474364
857,0.36393383145332336,0.4697076380252838,0.95,0.84,0.0006299605249474364
858,0.3639291524887085,0.46973252296447754,0.95,0.84,0.0006299605249474364
859,0.3639243245124817,0.4697590172290802,0.95,0.84,0.0006299605249474364
860,0.36391952633857727,0.4697872996330261,0.95,0.84,0.0006299605249474364
861,0.3639146387577057,0.4698171615600586,0.95,0.84,0.0006299605249474364
862,0.3639097213745117,0.46984875202178955,0.95,0.84,0.0006299605249474364
863,0.36390480399131775,0.4698820412158966,0.95,0.84,0.0006299605249474364
864,0.3638997972011566,0.4699171483516693,0.95,0.84,0.0006299605249474364
865,0.3638947010040283,0.46995383501052856,0.95,0.84,0.0006299605249474364
866,0.36388954520225525,0.46999239921569824,0.95,0.84,0.0006299605249474364
867,0.3638843595981598,0.4700327217578888,0.95,0.84,0.0006299605249474364
868,0.36387908458709717,0.4700748324394226,0.95,0.84,0.0006299605249474364
869,0.36387374997138977,0.4701187014579773,0.95,0.84,0.0006299605249474364
870,0.3638683259487152,0.4701644480228424,0.95,0.84,0.0006299605249474364
871,0.36386287212371826,0.4702119529247284,0.95,0.84,0.0006299605249474364
872,0.36385735869407654,0.47026127576828003,0.95,0.84,0.0006299605249474364
873,0.36385178565979004,0.470312237739563,0.95,0.84,0.0006299605249474364
874,0.3638461232185364,0.4703647494316101,0.95,0.84,0.0006299605249474364
875,0.3638404607772827,0.4704185426235199,0.95,0.84,0.0006299605249474364
876,0.3638346791267395,0.47047358751296997,0.95,0.84,0.0006299605249474364
877,0.3638288080692291,0.470529705286026,0.95,0.84,0.0006299605249474364
878,0.36382296681404114,0.47058677673339844,0.95,0.84,0.0006299605249474364
879,0.36381709575653076,0.47064459323883057,0.95,0.84,0.0006299605249474364
880,0.3638112246990204,0.4707033038139343,0.95,0.84,0.0006299605249474364
881,0.3638053238391876,0.4707627594470978,0.95,0.84,0.0006299605249474364
882,0.36379939317703247,0.47082310914993286,0.95,0.84,0.0006299605249474364
883,0.3637934625148773,0.47088444232940674,0.95,0.84,0.0006299605249474364
884,0.3637876808643341,0.47094669938087463,0.95,0.84,0.0006299605249474364
885,0.36378178000450134,0.4710101783275604,0.95,0.84,0.0006299605249474364
886,0.3637760281562805,0.4710749685764313,0.95,0.84,0.0006299605249474364
887,0.3637702465057373,0.47114089131355286,0.95,0.84,0.0006299605249474364
888,0.3637646734714508,0.4712081253528595,0.95,0.84,0.0006299605249474364
889,0.36375904083251953,0.4712764024734497,0.95,0.84,0.0006299605249474364
890,0.3637535870075226,0.47134581208229065,0.95,0.84,0.0006299605249474364
891,0.3637481927871704,0.47141608595848083,0.95,0.84,0.0006299605249474364
892,0.3637429475784302,0.4714873135089874,0.95,0.84,0.0006299605249474364
893,0.36373770236968994,0.47155943512916565,0.95,0.84,0.0006299605249474364
894,0.36373260617256165,0.4716322720050812,0.95,0.84,0.0006299605249474364
895,0.3637275695800781,0.471705824136734,0.95,0.84,0.0006299605249474364
896,0.36372265219688416,0.47178012132644653,0.95,0.84,0.0006299605249474364
897,0.36371785402297974,0.4718549847602844,0.95,0.84,0.0006299605249474364
898,0.3637131154537201,0.4719303250312805,0.95,0.84,0.0006299605249474364
899,0.3637084662914276,0.4720058739185333,0.95,0.84,0.0006299605249474364
900,0.36370396614074707,0.47208142280578613,0.95,0.84,0.0006299605249474364
901,0.36369937658309937,0.4721566438674927,0.95,0.84,0.0006299605249474364
902,0.36369505524635315,0.47223132848739624,0.95,0.84,0.0006299605249474364
903,0.3636907935142517,0.47230538725852966,0.95,0.84,0.0006299605249474364
904,0.36368659138679504,0.47237876057624817,0.95,0.84,0.0006299605249474364
905,0.36368244886398315,0.47245150804519653,0.95,0.84,0.0006299605249474364
906,0.3636784255504608,0.4725239872932434,0.95,0.84,0.0006299605249474364
907,0.363674521446228,0.4725964069366455,0.95,0.84,0.0006299605249474364
908,0.3636706471443176,0.47266924381256104,0.95,0.84,0.0006299605249474364
909,0.363666832447052,0.47274330258369446,0.95,0.84,0.0006299605249474364
910,0.3636631667613983,0.4728190302848816,0.95,0.84,0.0006299605249474364
911,0.36365950107574463,0.47289735078811646,0.95,0.84,0.0006299605249474364
912,0.3636559247970581,0.47297877073287964,0.95,0.84,0.0006299605249474364
913,0.3636524975299835,0.4730643928050995,0.95,0.84,0.0006299605249474364
914,0.3636491000652313,0.47315484285354614,0.95,0.84,0.0006299605249474364
915,0.3636457920074463,0.47325095534324646,0.95,0.84,0.0006299605249474364
916,0.36364251375198364,0.47335341572761536,0.95,0.84,0.0006299605249474364
917,0.36363938450813293,0.4734632074832916,0.95,0.84,0.0006299605249474364
918,0.36363616585731506,0.47358086705207825,0.95,0.84,0.0006299605249474364
919,0.3636331558227539,0.4737072288990021,0.95,0.84,0.0006299605249474364
920,0.3636300563812256,0.4738427996635437,0.95,0.84,0.0006299605249474364
921,0.36362725496292114,0.4739881753921509,0.95,0.84,0.0006299605249474364
922,0.3636242747306824,0.4741438627243042,0.95,0.84,0.0006299605249474364
923,0.36362141370773315,0.4743097424507141,0.95,0.84,0.0006299605249474364
924,0.3636186122894287,0.4744859039783478,0.95,0.84,0.0006299605249474364
925,0.36361587047576904,0.4746723473072052,0.95,0.84,0.0006299605249474364
926,0.36361315846443176,0.4748685359954834,0.95,0.84,0.0006299605249474364
927,0.36361050605773926,0.47507354617118835,0.95,0.84,0.0006299605249474364
928,0.36360785365104675,0.475286602973938,0.95,0.84,0.0006299605249474364
929,0.363605260848999,0.4755062758922577,0.95,0.84,0.0006299605249474364
930,0.36360278725624084,0.47573143243789673,0.95,0.84,0.0006299605249474364
931,0.3636002838611603,0.47596028447151184,0.95,0.84,0.0006299605249474364
932,0.3635977804660797,0.4761914908885956,0.95,0.84,0.0006299605249474364
933,0.3635953962802887,0.47642314434051514,0.95,0.83,0.0006299605249474364
934,0.36359313130378723,0.4766537845134735,0.95,0.83,0.0006299605249474364
935,0.3635907471179962,0.47688212990760803,0.95,0.83,0.0006299605249474364
936,0.36358848214149475,0.47710660099983215,0.95,0.83,0.0006299605249474364
937,0.3635861575603485,0.47732630372047424,0.95,0.83,0.0006299605249474364
938,0.3635839521884918,0.4775403141975403,0.95,0.83,0.0006299605249474364
939,0.36358174681663513,0.4777477979660034,0.95,0.83,0.0006299605249474364
940,0.3635796010494232,0.4779483377933502,0.95,0.83,0.0006299605249474364
941,0.3635774254798889,0.4781416654586792,0.95,0.83,0.0006299605249474364
942,0.36357539892196655,0.47832751274108887,0.95,0.83,0.0006299605249474364
943,0.3635733425617218,0.4785061776638031,0.95,0.83,0.0006299605249474364
944,0.36357128620147705,0.47867757081985474,0.95,0.83,0.0006299605249474364
945,0.3635692596435547,0.47884196043014526,0.95,0.83,0.0006299605249474364
946,0.36356720328330994,0.4789997339248657,0.95,0.83,0.0006299605249474364
947,0.3635653555393219,0.4791512191295624,0.95,0.83,0.0006299605249474364
948,0.3635634183883667,0.4792967140674591,0.95,0.83,0.0006299605249474364
949,0.3635614812374115,0.47943684458732605,0.95,0.83,0.0006299605249474364
950,0.3635595738887787,0.4795715808868408,0.95,0.83,0.0006299605249474364
951,0.36355769634246826,0.47970160841941833,0.95,0.83,0.0006299605249474364
952,0.3635559380054474,0.4798271059989929,0.95,0.83,0.0006299605249474364
953,0.3635541796684265,0.4799482822418213,0.95,0.83,0.0006299605249474364
954,0.36355236172676086,0.4800655245780945,0.95,0.83,0.0006299605249474364
955,0.3635506331920624,0.48017895221710205,0.95,0.83,0.0006299605249474364
956,0.3635489344596863,0.48028862476348877,0.95,0.83,0.0006299605249474364
957,0.363547146320343,0.48039475083351135,0.95,0.83,0.0006299605249474364
958,0.3635455369949341,0.4804973304271698,0.95,0.83,0.0006299605249474364
959,0.3635438084602356,0.48059651255607605,0.95,0.83,0.0006299605249474364
960,0.36354219913482666,0.4806922972202301,0.95,0.83,0.0006299605249474364
961,0.3635406494140625,0.4807847738265991,0.95,0.83,0.0006299605249474364
962,0.3635390102863312,0.48087388277053833,0.95,0.83,0.0006299605249474364
963,0.36353743076324463,0.48095977306365967,0.95,0.83,0.0006299605249474364
964,0.3635358512401581,0.48104241490364075,0.95,0.83,0.0006299605249474364
965,0.3635343611240387,0.4811217188835144,0.95,0.83,0.0006299605249474364
966,0.36353275179862976,0.4811978042125702,0.95,0.83,0.0006299605249474364
967,0.36353129148483276,0.48127081990242004,0.95,0.83,0.0006299605249474364
968,0.363529771566391,0.4813406467437744,0.95,0.83,0.0006299605249474364
969,0.36352837085723877,0.4814074635505676,0.95,0.83,0.0006299605249474364
970,0.3635268807411194,0.4814711809158325,0.95,0.83,0.0006299605249474364
971,0.36352548003196716,0.4815320670604706,0.95,0.83,0.0006299605249474364
972,0.36352407932281494,0.48159003257751465,0.95,0.83,0.0006299605249474364
973,0.3635226786136627,0.48164528608322144,0.95,0.83,0.0006299605249474364
974,0.3635213077068329,0.4816978871822357,0.95,0.83,0.0006299605249474364
975,0.36351990699768066,0.4817480146884918,0.95,0.83,0.0006299605249474364
976,0.36351853609085083,0.4817955493927002,0.95,0.83,0.0006299605249474364
977,0.36351722478866577,0.4818408489227295,0.95,0.83,0.0006299605249474364
978,0.3635158836841583,0.4818839728832245,0.95,0.83,0.0006299605249474364
979,0.36351460218429565,0.4819251000881195,0.95,0.83,0.0006299605249474364
980,0.3635132908821106,0.4819640815258026,0.95,0.83,0.0006299605249474364
981,0.3635120391845703,0.48200130462646484,0.95,0.83,0.0006299605249474364
982,0.36351072788238525,0.4820367395877838,0.95,0.83,0.0006299605249474364
983,0.36350956559181213,0.4820706844329834,0.95,0.83,0.0006299605249474364
984,0.3635082542896271,0.4821029305458069,0.95,0.83,0.0006299605249474364
985,0.36350709199905396,0.48213374614715576,0.95,0.83,0.0006299605249474364
986,0.36350587010383606,0.48216328024864197,0.95,0.83,0.0006299605249474364
987,0.36350464820861816,0.4821915030479431,0.95,0.83,0.0006299605249474364
988,0.36350345611572266,0.48221850395202637,0.95,0.83,0.0006299605249474364
989,0.36350226402282715,0.4822445213794708,0.95,0.83,0.0006299605249474364
990,0.36350110173225403,0.4822693169116974,0.95,0.83,0.0006299605249474364
991,0.36350002884864807,0.4822932779788971,0.95,0.83,0.0006299605249474364
992,0.36349883675575256,0.4823163151741028,0.95,0.83,0.0006299605249474364
993,0.3634977340698242,0.48233845829963684,0.95,0.83,0.0006299605249474364
994,0.3634966313838959,0.482359915971756,0.95,0.83,0.0006299605249474364
995,0.36349552869796753,0.4823805093765259,0.95,0.83,0.0006299605249474364
996,0.3634944260120392,0.48240038752555847,0.95,0.83,0.0006299605249474364
997,0.3634933829307556,0.4824197292327881,0.95,0.83,0.0006299605249474364
998,0.3634921908378601,0.4824383556842804,0.95,0.83,0.0006299605249474364
999,0.3634911775588989,0.4824563264846802,0.95,0.83,0.0006299605249474364
1000,0.36349019408226013,0.48247388005256653,0.95,0.83,0.0006299605249474364
1001,0.363489031791687,0.4824908375740051,0.95,0.83,0.0006299605249474364
1002,0.3634880781173706,0.4825073480606079,0.95,0.83,0.0006299605249474364
1003,0.3634870648384094,0.48252326250076294,0.95,0.83,0.0006299605249474364
1004,0.36348602175712585,0.4825388193130493,0.95,0.83,0.0006299605249474364
1005,0.36348506808280945,0.4825538992881775,0.95,0.83,0.0006299605249474364
1006,0.36348408460617065,0.4825684726238251,0.95,0.83,0.0006299605249474364
1007,0.3634830713272095,0.482582688331604,0.95,0.83,0.0006299605249474364
1008,0.3634820878505707,0.48259657621383667,0.95,0.83,0.0006299605249474364
1009,0.36348116397857666,0.4826101064682007,0.95,0.83,0.0006299605249474364
1010,0.36348026990890503,0.4826233386993408,0.95,0.83,0.0006299605249474364
1011,0.36347922682762146,0.48263609409332275,0.95,0.83,0.0006299605249474364
1012,0.36347827315330505,0.4826486110687256,0.95,0.83,0.0006299605249474364
1013,0.36347734928131104,0.4826607406139374,0.95,0.83,0.0006299605249474364
1014,0.3634764850139618,0.48267269134521484,0.95,0.83,0.0006299605249474364
1015,0.3634755611419678,0.48268431425094604,0.95,0.83,0.0006299605249474364
1016,0.36347466707229614,0.48269572854042053,0.95,0.83,0.0006299605249474364
1017,0.3634737432003021,0.48270684480667114,0.95,0.83,0.0006299605249474364
1018,0.36347290873527527,0.48271775245666504,0.95,0.83,0.0006299605249474364
1019,0.36347198486328125,0.48272836208343506,0.95,0.83,0.0006299605249474364
1020,0.36347106099128723,0.4827388525009155,0.95,0.83,0.0006299605249474364
1021,0.3634702265262604,0.4827490746974945,0.95,0.83,0.0006299605249474364
1022,0.3634693920612335,0.4827590882778168,0.95,0.83,0.0006299605249474364
1023,0.36346855759620667,0.4827690124511719,0.95,0.83,0.0006299605249474364
1024,0.36346763372421265,0.4827786684036255,0.95,0.83,0.0006299605249474364
1025,0.3634668290615082,0.4827882647514343,0.95,0.83,0.0006299605249474364
1026,0.36346596479415894,0.4827977120876312,0.95,0.83,0.0006299605249474364
1027,0.36346516013145447,0.48280686140060425,0.95,0.83,0.0006299605249474364
1028,0.36346435546875,0.48281604051589966,0.95,0.83,0.0006299605249474364
1029,0.36346355080604553,0.48282504081726074,0.95,0.83,0.0006299605249474364
1030,0.36346274614334106,0.48283395171165466,0.95,0.83,0.0006299605249474364
1031,0.36346200108528137,0.48284274339675903,0.95,0.83,0.0006299605249474364
1032,0.36346110701560974,0.48285141587257385,0.95,0.83,0.0006299605249474364
1033,0.3634603023529053,0.48286011815071106,0.95,0.83,0.0006299605249474364
1034,0.3634595572948456,0.48286861181259155,0.95,0.83,0.0006299605249474364
1035,0.3634588122367859,0.48287704586982727,0.95,0.83,0.0006299605249474364
1036,0.3634580671787262,0.482885479927063,0.95,0.83,0.0006299605249474364
1037,0.3634573221206665,0.482893705368042,0.95,0.83,0.0006299605249474364
1038,0.3634565472602844,0.48290199041366577,0.95,0.83,0.0006299605249474364
1039,0.3634558618068695,0.48291015625,0.95,0.83,0.0006299605249474364
1040,0.3634551167488098,0.4829184412956238,0.95,0.83,0.0006299605249474364
1041,0.36345428228378296,0.48292645812034607,0.95,0.83,0.0006299605249474364
1042,0.36345362663269043,0.48293453454971313,0.95,0.83,0.0006299605249474364
1043,0.36345282196998596,0.4829425811767578,0.95,0.83,0.0006299605249474364
1044,0.36345210671424866,0.4829506576061249,0.95,0.83,0.0006299605249474364
1045,0.36345139145851135,0.4829585552215576,0.95,0.83,0.0006299605249474364
1046,0.3634507358074188,0.4829665720462799,0.95,0.83,0.0006299605249474364
1047,0.36344996094703674,0.482974648475647,0.95,0.83,0.0006299605249474364
1048,0.3634493350982666,0.48298248648643494,0.95,0.83,0.0006299605249474364
1049,0.3634486794471741,0.48299041390419006,0.95,0.83,0.0006299605249474364
1050,0.363447904586792,0.48299843072891235,0.95,0.83,0.0006299605249474364
1051,0.3634471893310547,0.48300623893737793,0.95,0.83,0.0006299605249474364
1052,0.36344659328460693,0.48301419615745544,0.95,0.83,0.0006299605249474364
1053,0.36344581842422485,0.48302215337753296,0.95,0.83,0.0006299605249474364
1054,0.3634451627731323,0.4830300807952881,0.95,0.83,0.0006299605249474364
1055,0.3634444773197174,0.4830380380153656,0.95,0.83,0.0006299605249474364
1056,0.3634438216686249,0.4830459952354431,0.95,0.83,0.0006299605249474364
1057,0.3634432256221771,0.483053982257843,0.95,0.83,0.0006299605249474364
1058,0.3634425699710846,0.48306187987327576,0.95,0.83,0.0006299605249474364
1059,0.3634418845176697,0.4830699563026428,0.95,0.83,0.0006299605249474364
1060,0.3634412884712219,0.4830779731273651,0.95,0.83,0.0006299605249474364
1061,0.363440603017807,0.4830859303474426,0.95,0.83,0.0006299605249474364
1062,0.36343997716903687,0.4830940365791321,0.95,0.83,0.0006299605249474364
1063,0.3634393811225891,0.48310211300849915,0.95,0.83,0.0006299605249474364
1064,0.3634387254714966,0.4831101894378662,0.95,0.83,0.0006299605249474364
1065,0.3634381592273712,0.4831184148788452,0.95,0.83,0.0006299605249474364
1066,0.3634375035762787,0.48312652111053467,0.95,0.83,0.0006299605249474364
1067,0.36343684792518616,0.4831346869468689,0.95,0.83,0.0006299605249474364
1068,0.3634362518787384,0.48314303159713745,0.95,0.82,0.0006299605249474364
1069,0.36343565583229065,0.48315125703811646,0.95,0.82,0.0006299605249474364
1070,0.3634350597858429,0.48315951228141785,0.95,0.82,0.0006299605249474364
1071,0.36343440413475037,0.4831678867340088,0.95,0.82,0.0006299605249474364
1072,0.3634338676929474,0.4831763505935669,0.95,0.82,0.0006299605249474364
1073,0.36343327164649963,0.48318466544151306,0.95,0.82,0.0006299605249474364
1074,0.3634326457977295,0.48319321870803833,0.95,0.82,0.0006299605249474364
1075,0.3634320795536041,0.48320162296295166,0.95,0.82,0.0006299605249474364
1076,0.36343154311180115,0.4832102060317993,0.95,0.82,0.0006299605249474364
1077,0.3634309470653534,0.48321887850761414,0.95,0.82,0.0006299605249474364
1078,0.363430380821228,0.48322755098342896,0.95,0.82,0.0006299605249474364
1079,0.3634297847747803,0.4832361936569214,0.95,0.82,0.0006299605249474364
1080,0.3634292483329773,0.48324498534202576,0.95,0.82,0.0006299605249474364
1081,0.36342865228652954,0.4832538366317749,0.95,0.82,0.0006299605249474364
1082,0.36342811584472656,0.48326265811920166,0.95,0.82,0.0006299605249474364
1083,0.3634275496006012,0.4832715690135956,0.95,0.82,0.0006299605249474364
1084,0.3634270131587982,0.4832804799079895,0.95,0.82,0.0006299605249474364
1085,0.36342644691467285,0.48328956961631775,0.95,0.82,0.0006299605249474364
1086,0.36342594027519226,0.4832985997200012,0.95,0.82,0.0006299605249474364
1087,0.3634253442287445,0.48330771923065186,0.95,0.82,0.0006299605249474364
1088,0.36342480778694153,0.48331692814826965,0.95,0.82,0.0006299605249474364
1089,0.36342430114746094,0.48332613706588745,0.95,0.82,0.0006299605249474364
1090,0.3634237051010132,0.48333540558815,0.95,0.82,0.0006299605249474364
1091,0.363423228263855,0.4833447337150574,0.95,0.82,0.0006299605249474364
1092,0.3634226322174072,0.4833541512489319,0.95,0.82,0.0006299605249474364
1093,0.3634222149848938,0.48336368799209595,0.95,0.82,0.0006299605249474364
1094,0.3634216785430908,0.4833731949329376,0.95,0.82,0.0006299605249474364
1095,0.36342114210128784,0.4833827316761017,0.95,0.82,0.0006299605249474364
1096,0.3634205758571625,0.4833924174308777,0.95,0.82,0.0006299605249474364
1097,0.36342012882232666,0.4834021031856537,0.95,0.82,0.0006299605249474364
1098,0.3634195625782013,0.4834118187427521,0.95,0.82,0.0006299605249474364
1099,0.3634191155433655,0.48342156410217285,0.95,0.82,0.0006299605249474364
1100,0.3634186089038849,0.48343154788017273,0.95,0.82,0.0006299605249474364
1101,0.3634181320667267,0.48344138264656067,0.95,0.82,0.0006299605249474364
1102,0.3634176254272461,0.48345133662223816,0.95,0.82,0.0006299605249474364
1103,0.3634170591831207,0.4834613800048828,0.95,0.82,0.0006299605249474364
1104,0.3634166419506073,0.48347148299217224,0.95,0.82,0.0006299605249474364
1105,0.3634161353111267,0.48348167538642883,0.95,0.82,0.0006299605249474364
1106,0.3634156882762909,0.4834918975830078,0.95,0.82,0.0006299605249474364
1107,0.3634151518344879,0.48350220918655396,0.95,0.82,0.0006299605249474364
1108,0.3634146749973297,0.4835125207901001,0.95,0.82,0.0006299605249474364
1109,0.3634141981601715,0.48352286219596863,0.95,0.82,0.0006299605249474364
1110,0.3634137213230133,0.4835333526134491,0.95,0.82,0.0006299605249474364
1111,0.3634132444858551,0.48354393243789673,0.95,0.82,0.0006299605249474364
1112,0.3634127676486969,0.483554482460022,0.95,0.82,0.0006299605249474364
1113,0.3634122908115387,0.48356515169143677,0.95,0.82,0.0006299605249474364
1114,0.36341190338134766,0.48357582092285156,0.95,0.82,0.0006299605249474364
1115,0.36341145634651184,0.48358654975891113,0.95,0.82,0.0006299605249474364
1116,0.36341091990470886,0.48359739780426025,0.95,0.82,0.0006299605249474364
1117,0.36341050267219543,0.48360833525657654,0.95,0.82,0.0006299605249474364
1118,0.36340996623039246,0.4836192727088928,0.95,0.82,0.0006299605249474364
1119,0.36340954899787903,0.4836302101612091,0.95,0.82,0.0006299605249474364
1120,0.3634090721607208,0.48364123702049255,0.95,0.82,0.0006299605249474364
1121,0.3634086549282074,0.48365235328674316,0.95,0.82,0.0006299605249474364
1122,0.3634082078933716,0.48366355895996094,0.95,0.82,0.0006299605249474364
1123,0.36340779066085815,0.48367464542388916,0.95,0.82,0.0006299605249474364
1124,0.3634074032306671,0.48368600010871887,0.95,0.82,0.0006299605249474364
1125,0.3634069561958313,0.48369723558425903,0.95,0.82,0.0006299605249474364
1126,0.3634064197540283,0.4837086796760559,0.95,0.82,0.0006299605249474364
1127,0.3634060323238373,0.48372000455856323,0.95,0.82,0.0006299605249474364
1128,0.36340558528900146,0.4837315082550049,0.95,0.82,0.0006299605249474364
1129,0.36340510845184326,0.4837431013584137,0.95,0.82,0.0006299605249474364
1130,0.3634047210216522,0.48375481367111206,0.95,0.82,0.0006299605249474364
1131,0.3634042739868164,0.4837663173675537,0.95,0.82,0.0006299605249474364
1132,0.36340388655662537,0.4837780296802521,0.95,0.82,0.0006299605249474364
1133,0.36340340971946716,0.4837898910045624,0.95,0.82,0.0006299605249474364
1134,0.3634030222892761,0.4838017225265503,0.95,0.82,0.0006299605249474364
1135,0.3634026050567627,0.4838135838508606,0.95,0.82,0.0006299605249474364
1136,0.36340221762657166,0.4838254153728485,0.95,0.82,0.0006299605249474364
1137,0.3634018301963806,0.48383739590644836,0.95,0.82,0.0006299605249474364
1138,0.3634014427661896,0.483849436044693,0.95,0.82,0.0006299605249474364
1139,0.36340096592903137,0.48386150598526,0.95,0.82,0.0006299605249474364
1140,0.36340054869651794,0.4838736653327942,0.95,0.82,0.0006299605249474364
1141,0.36340010166168213,0.48388585448265076,0.95,0.82,0.0006299605249474364
1142,0.36339977383613586,0.4838980734348297,0.95,0.82,0.0006299605249474364
1143,0.36339932680130005,0.48391029238700867,0.95,0.82,0.0006299605249474364
1144,0.36339905858039856,0.48392269015312195,0.95,0.82,0.0006299605249474364
1145,0.36339855194091797,0.48393508791923523,0.95,0.82,0.0006299605249474364
1146,0.36339816451072693,0.4839474558830261,0.95,0.82,0.0006299605249474364
1147,0.3633977472782135,0.4839598834514618,0.95,0.82,0.0006299605249474364
1148,0.3633974492549896,0.483972430229187,0.95,0.82,0.0006299605249474364
1149,0.36339694261550903,0.48398494720458984,0.95,0.82,0.0006299605249474364
1150,0.36339661478996277,0.4839975833892822,0.95,0.82,0.0006299605249474364
1151,0.36339622735977173,0.48401015996932983,0.95,0.82,0.0006299605249474364
1152,0.3633958101272583,0.484022855758667,0.95,0.82,0.0006299605249474364
1153,0.3633955121040344,0.4840356707572937,0.95,0.82,0.0006299605249474364
1154,0.363395094871521,0.48404842615127563,0.95,0.82,0.0006299605249474364
1155,0.36339470744132996,0.48406124114990234,0.95,0.82,0.0006299605249474364
1156,0.3633943200111389,0.4840741455554962,0.95,0.82,0.0006299605249474364
1157,0.3633939325809479,0.48408710956573486,0.95,0.82,0.0006299605249474364
1158,0.36339354515075684,0.4841000437736511,0.95,0.82,0.0006299605249474364
1159,0.36339321732521057,0.4841131567955017,0.95,0.82,0.0006299605249474364
1160,0.36339280009269714,0.4841262102127075,0.95,0.82,0.0006299605249474364
1161,0.3633924722671509,0.4841392934322357,0.95,0.82,0.0006299605249474364
1162,0.3633921444416046,0.4841524064540863,0.95,0.82,0.0006299605249474364
1163,0.3633917272090912,0.48416557908058167,0.95,0.82,0.0006299605249474364
1164,0.36339133977890015,0.4841788411140442,0.95,0.82,0.0006299605249474364
1165,0.3633910119533539,0.48419204354286194,0.95,0.82,0.0006299605249474364
1166,0.3633906841278076,0.48420536518096924,0.95,0.82,0.0006299605249474364
1167,0.3633902668952942,0.4842187166213989,0.95,0.82,0.0006299605249474364
1168,0.36338987946510315,0.484232097864151,0.95,0.82,0.0006299605249474364
1169,0.3633895516395569,0.48424556851387024,0.95,0.82,0.0006299605249474364
1170,0.36338919401168823,0.4842589199542999,0.95,0.82,0.0006299605249474364
1171,0.36338889598846436,0.4842725396156311,0.95,0.82,0.0006299605249474364
1172,0.3633885681629181,0.48428601026535034,0.95,0.82,0.0006299605249474364
1173,0.36338818073272705,0.4842996597290039,0.95,0.82,0.0006299605249474364
1174,0.36338791251182556,0.48431336879730225,0.95,0.82,0.0006299605249474364
1175,0.36338746547698975,0.48432692885398865,0.95,0.82,0.0006299605249474364
1176,0.3633871376514435,0.4843405783176422,0.95,0.82,0.0006299605249474364
1177,0.3633868396282196,0.4843544363975525,0.95,0.82,0.0006299605249474364
1178,0.36338645219802856,0.48436814546585083,0.95,0.82,0.0006299605249474364
1179,0.3633861243724823,0.4843819737434387,0.95,0.82,0.0006299605249474364
1180,0.36338579654693604,0.4843958020210266,0.95,0.82,0.0006299605249474364
1181,0.36338546872138977,0.4844096302986145,0.95,0.82,0.0006299605249474364
1182,0.36338508129119873,0.4844236373901367,0.95,0.82,0.0006299605249474364
1183,0.36338475346565247,0.48443758487701416,0.95,0.82,0.0006299605249474364
1184,0.3633844256401062,0.4844515919685364,0.95,0.82,0.0006299605249474364
1185,0.3633841276168823,0.4844655990600586,0.95,0.82,0.0006299605249474364
1186,0.36338382959365845,0.48447972536087036,0.95,0.82,0.0006299605249474364
1187,0.36338356137275696,0.48449376225471497,0.95,0.82,0.0006299605249474364
1188,0.36338314414024353,0.4845079779624939,0.95,0.82,0.0006299605249474364
1189,0.3633827865123749,0.48452213406562805,0.95,0.82,0.0006299605249474364
1190,0.363382488489151,0.484536349773407,0.95,0.82,0.0006299605249474364
1191,0.3633821904659271,0.4845505654811859,0.95,0.82,0.0006299605249474364
1192,0.36338189244270325,0.48456478118896484,0.95,0.82,0.0006299605249474364
1193,0.3633815348148346,0.4845791161060333,0.95,0.82,0.0006299605249474364
1194,0.36338120698928833,0.4845934808254242,0.95,0.82,0.0006299605249474364
1195,0.36338093876838684,0.48460784554481506,0.95,0.82,0.0006299605249474364
1196,0.3633806109428406,0.4846222996711731,0.95,0.82,0.0006299605249474364
1197,0.3633803129196167,0.48463675379753113,0.95,0.82,0.0006299605249474364
1198,0.36337998509407043,0.48465126752853394,0.95,0.82,0.0006299605249474364
1199,0.36337965726852417,0.48466575145721436,0.95,0.82,0.0006299605249474364
1200,0.3633793592453003,0.48468026518821716,0.95,0.82,0.0006299605249474364
1201,0.3633790612220764,0.48469477891921997,0.95,0.82,0.0006299605249474364
1202,0.36337876319885254,0.4847094416618347,0.95,0.82,0.0006299605249474364
1203,0.3633784353733063,0.4847240149974823,0.95,0.82,0.0006299605249474364
1204,0.3633781671524048,0.4847387671470642,0.95,0.82,0.0006299605249474364
1205,0.3633778393268585,0.4847533404827118,0.95,0.82,0.0006299605249474364
1206,0.36337748169898987,0.4847680628299713,0.95,0.82,0.0006299605249474364
1207,0.3633772134780884,0.4847829043865204,0.95,0.82,0.0006299605249474364
1208,0.3633769154548645,0.4847975969314575,0.95,0.82,0.0006299605249474364
1209,0.3633767068386078,0.4848124384880066,0.95,0.82,0.0006299605249474364
1210,0.36337634921073914,0.48482733964920044,0.95,0.82,0.0006299605249474364
1211,0.36337605118751526,0.4848421812057495,0.95,0.82,0.0006299605249474364
1212,0.36337578296661377,0.48485705256462097,0.95,0.82,0.0006299605249474364
1213,0.3633755147457123,0.48487210273742676,0.95,0.82,0.0006299605249474364
1214,0.3633752167224884,0.484887033700943,0.95,0.82,0.0006299605249474364
1215,0.36337485909461975,0.484902024269104,0.95,0.82,0.0006299605249474364
1216,0.36337459087371826,0.48491719365119934,0.95,0.82,0.0006299605249474364
1217,0.3633742928504944,0.48493221402168274,0.95,0.82,0.0006299605249474364
1218,0.3633739948272705,0.4849473536014557,0.95,0.82,0.0006299605249474364
1219,0.363373726606369,0.48496246337890625,0.95,0.82,0.0006299605249474364
1220,0.36337345838546753,0.4849776029586792,0.95,0.82,0.0006299605249474364
1221,0.36337319016456604,0.48499271273612976,0.95,0.82,0.0006299605249474364
1222,0.36337289214134216,0.48500797152519226,0.95,0.82,0.0006299605249474364
1223,0.36337265372276306,0.48502323031425476,0.95,0.82,0.0006299605249474364
1224,0.363372266292572,0.48503848910331726,0.95,0.82,0.0006299605249474364
1225,0.3633720278739929,0.48505377769470215,0.95,0.82,0.0006299605249474364
1226,0.36337175965309143,0.4850690960884094,0.95,0.82,0.0006299605249474364
1227,0.36337146162986755,0.4850844442844391,0.95,0.82,0.0006299605249474364
1228,0.36337125301361084,0.4850998818874359,0.95,0.82,0.0006299605249474364
1229,0.3633709251880646,0.4851153492927551,0.95,0.82,0.0006299605249474364
1230,0.3633706569671631,0.4851307272911072,0.95,0.82,0.0006299605249474364
1231,0.3633703887462616,0.4851462244987488,0.95,0.82,0.0006299605249474364
1232,0.3633700907230377,0.48516178131103516,0.95,0.82,0.0006299605249474364
1233,0.3633698523044586,0.485177218914032,0.95,0.82,0.0006299605249474364
1234,0.36336958408355713,0.48519283533096313,0.95,0.82,0.0006299605249474364
1235,0.3633693754673004,0.4852084815502167,0.95,0.82,0.0006299605249474364
1236,0.36336901783943176,0.48522400856018066,0.95,0.82,0.0006299605249474364
1237,0.36336883902549744,0.485239714384079,0.95,0.82,0.0006299605249474364
1238,0.36336854100227356,0.48525533080101013,0.95,0.82,0.0006299605249474364
1239,0.36336830258369446,0.48527103662490845,0.95,0.82,0.0006299605249474364
1240,0.3633680045604706,0.4852867126464844,0.95,0.82,0.0006299605249474364
1241,0.36336779594421387,0.48530250787734985,0.95,0.82,0.0006299605249474364
1242,0.3633674681186676,0.4853183329105377,0.95,0.82,0.0004999999999999997
1243,0.3633672297000885,0.48533087968826294,0.95,0.82,0.0004999999999999997
1244,0.3633670508861542,0.48534342646598816,0.95,0.82,0.0004999999999999997
1245,0.3633667826652527,0.48535606265068054,0.95,0.82,0.0004999999999999997
1246,0.3633665442466736,0.4853686988353729,0.95,0.82,0.0004999999999999997
1247,0.36336639523506165,0.4853813052177429,0.95,0.82,0.0004999999999999997
1248,0.3633662462234497,0.48539403080940247,0.95,0.82,0.0004999999999999997
1249,0.3633659780025482,0.4854065179824829,0.95,0.82,0.0004999999999999997
1250,0.3633658289909363,0.48541930317878723,0.95,0.82,0.0004999999999999997
1251,0.36336562037467957,0.4854319393634796,0.95,0.82,0.0004999999999999997
1252,0.36336541175842285,0.48544466495513916,0.95,0.82,0.0004999999999999997
1253,0.36336514353752136,0.4854574203491211,0.95,0.82,0.0004999999999999997
1254,0.3633650243282318,0.48547008633613586,0.95,0.82,0.0004999999999999997
1255,0.3633648157119751,0.4854828715324402,0.95,0.82,0.0004999999999999997
1256,0.363364577293396,0.4854956865310669,0.95,0.82,0.0004999999999999997
1257,0.3633643686771393,0.48550835251808167,0.95,0.82,0.0004999999999999997
1258,0.36336421966552734,0.4855211675167084,0.95,0.82,0.0004999999999999997
1259,0.363364040851593,0.48553401231765747,0.95,0.82,0.0004999999999999997
1260,0.3633638024330139,0.48554670810699463,0.95,0.82,0.0004999999999999997
1261,0.3633636236190796,0.4855596423149109,0.95,0.82,0.0004999999999999997
1262,0.3633634150028229,0.4855724275112152,0.95,0.82,0.0004999999999999997
1263,0.3633632957935333,0.48558545112609863,0.95,0.82,0.0004999999999999997
1264,0.3633630871772766,0.48559829592704773,0.95,0.82,0.0004999999999999997
1265,0.3633628785610199,0.485611230134964,0.95,0.82,0.0004999999999999997
1266,0.36336269974708557,0.48562419414520264,0.95,0.82,0.0004999999999999997
1267,0.36336246132850647,0.4856371283531189,0.95,0.82,0.0004999999999999997
1268,0.36336231231689453,0.4856502115726471,0.95,0.82,0.0004999999999999997
1269,0.3633621335029602,0.4856632351875305,0.95,0.82,0.0004999999999999997
1270,0.3633619248867035,0.4856763184070587,0.95,0.82,0.0004999999999999997
1271,0.36336174607276917,0.4856894612312317,0.95,0.82,0.0004999999999999997
1272,0.36336153745651245,0.4857025146484375,0.95,0.82,0.0004999999999999997
1273,0.36336132884025574,0.4857155978679657,0.95,0.82,0.0004999999999999997
1274,0.3633611798286438,0.48572877049446106,0.95,0.82,0.0004999999999999997
1275,0.3633609712123871,0.48574188351631165,0.95,0.82,0.0004999999999999997
1276,0.36336076259613037,0.4857550859451294,0.95,0.82,0.0004999999999999997
1277,0.3633606433868408,0.4857681691646576,0.95,0.82,0.0004999999999999997
1278,0.3633604347705841,0.48578137159347534,0.95,0.82,0.0004999999999999997
1279,0.3633602559566498,0.4857946038246155,0.95,0.82,0.0004999999999999997
1280,0.36336004734039307,0.485807865858078,0.95,0.82,0.0004999999999999997
1281,0.36335989832878113,0.48582127690315247,0.95,0.82,0.0004999999999999997
1282,0.3633597493171692,0.4858345091342926,0.95,0.82,0.0004999999999999997
1283,0.3633595407009125,0.4858478903770447,0.95,0.82,0.0004999999999999997
1284,0.36335936188697815,0.4858610928058624,0.95,0.82,0.0004999999999999997
1285,0.36335915327072144,0.48587456345558167,0.95,0.82,0.0004999999999999997
1286,0.3633589446544647,0.48588794469833374,0.95,0.82,0.0004999999999999997
1287,0.3633587956428528,0.4859013259410858,0.95,0.82,0.0004999999999999997
1288,0.36335861682891846,0.48591482639312744,0.95,0.82,0.0004999999999999997
1289,0.36335837841033936,0.4859282672405243,0.95,0.82,0.0004999999999999997
1290,0.3633582592010498,0.4859418570995331,0.95,0.82,0.0004999999999999997
1291,0.36335813999176025,0.48595526814460754,0.95,0.82,0.0004999999999999997
1292,0.36335793137550354,0.4859688878059387,0.95,0.82,0.0004999999999999997
1293,0.36335769295692444,0.4859825372695923,0.95,0.82,0.0004999999999999997
1294,0.3633575439453125,0.4859960973262787,0.95,0.82,0.0004999999999999997
1295,0.3633573651313782,0.48600977659225464,0.95,0.82,0.0004999999999999997
1296,0.36335718631744385,0.48602333664894104,0.95,0.82,0.0004999999999999997
1297,0.36335697770118713,0.486037015914917,0.95,0.82,0.0004999999999999997
1298,0.3633567690849304,0.48605063557624817,0.95,0.82,0.0004999999999999997
1299,0.36335667967796326,0.4860643744468689,0.95,0.82,0.0004999999999999997
1300,0.36335647106170654,0.4860781133174896,0.95,0.82,0.0004999999999999997
1301,0.3633563220500946,0.48609188199043274,0.95,0.82,0.0004999999999999997
1302,0.36335620284080505,0.48610568046569824,0.95,0.82,0.0004999999999999997
1303,0.36335599422454834,0.4861195385456085,0.95,0.82,0.0004999999999999997
1304,0.3633557856082916,0.486133337020874,0.95,0.82,0.0004999999999999997
1305,0.3633556365966797,0.4861472249031067,0.95,0.82,0.0004999999999999997
1306,0.36335548758506775,0.48616108298301697,0.95,0.82,0.0004999999999999997
1307,0.36335524916648865,0.4861750900745392,0.95,0.82,0.0004999999999999997
1308,0.3633551299571991,0.4861889183521271,0.95,0.82,0.0004999999999999997
1309,0.36335498094558716,0.48620301485061646,0.95,0.82,0.0004999999999999997
1310,0.36335477232933044,0.4862169325351715,0.95,0.82,0.0004999999999999997
1311,0.3633546531200409,0.4862309992313385,0.95,0.82,0.0004999999999999997
1312,0.3633544445037842,0.48624497652053833,0.95,0.82,0.0004999999999999997
1313,0.36335426568984985,0.48625901341438293,0.95,0.82,0.0004999999999999997
1314,0.3633540868759155,0.4862731993198395,0.95,0.82,0.0004999999999999997
1315,0.3633539080619812,0.48628729581832886,0.95,0.82,0.0004999999999999997
1316,0.36335375905036926,0.4863015115261078,0.95,0.82,0.0004999999999999997
1317,0.3633536100387573,0.48631563782691956,0.95,0.82,0.0004999999999999997
1318,0.3633534610271454,0.48632991313934326,0.95,0.82,0.0004999999999999997
1319,0.36335328221321106,0.4863441586494446,0.95,0.82,0.0004999999999999997
1320,0.36335307359695435,0.4863583743572235,0.95,0.82,0.0004999999999999997
1321,0.3633529245853424,0.486372709274292,0.95,0.82,0.0004999999999999997
1322,0.36335277557373047,0.4863870143890381,0.95,0.82,0.0004999999999999997
1323,0.36335262656211853,0.48640140891075134,0.95,0.82,0.0004999999999999997
1324,0.3633524179458618,0.4864157736301422,0.95,0.82,0.0004999999999999997
1325,0.3633522391319275,0.48643019795417786,0.95,0.82,0.0004999999999999997
1326,0.36335211992263794,0.4864445626735687,0.95,0.82,0.0004999999999999997
1327,0.363351970911026,0.48645907640457153,0.95,0.82,0.0004999999999999997
1328,0.3633517920970917,0.48647353053092957,0.95,0.82,0.0004999999999999997
1329,0.3633516728878021,0.4864879846572876,0.95,0.82,0.0004999999999999997
1330,0.3633514642715454,0.4865025281906128,0.95,0.82,0.0004999999999999997
1331,0.3633512854576111,0.48651713132858276,0.95,0.82,0.0004999999999999997
1332,0.36335116624832153,0.48653167486190796,0.95,0.82,0.0004999999999999997
1333,0.3633509874343872,0.48654624819755554,0.95,0.82,0.0004999999999999997
1334,0.36335086822509766,0.4865610599517822,0.95,0.82,0.0004999999999999997
1335,0.3633507192134857,0.48657578229904175,0.95,0.82,0.0004999999999999997
1336,0.363350510597229,0.48659050464630127,0.95,0.82,0.0004999999999999997
1337,0.36335042119026184,0.4866052269935608,0.95,0.82,0.0004999999999999997
1338,0.3633502721786499,0.48662009835243225,0.95,0.82,0.0004999999999999997
1339,0.3633500933647156,0.4866349399089813,0.95,0.82,0.0004999999999999997
1340,0.3633498251438141,0.486649751663208,0.95,0.82,0.0004999999999999997
1341,0.3633497357368469,0.48666468262672424,0.95,0.82,0.0004999999999999997
1342,0.3633496165275574,0.4866796135902405,0.95,0.82,0.0004999999999999997
1343,0.36334946751594543,0.48669448494911194,0.95,0.82,0.0004999999999999997
1344,0.3633493185043335,0.4867095649242401,0.95,0.82,0.0004999999999999997
1345,0.36334913969039917,0.48672446608543396,0.95,0.82,0.0004999999999999997
1346,0.36334899067878723,0.48673954606056213,0.95,0.82,0.0004999999999999997
1347,0.3633488416671753,0.4867546856403351,0.95,0.82,0.0004999999999999997
1348,0.36334869265556335,0.48676979541778564,0.95,0.82,0.0004999999999999997
1349,0.3633485436439514,0.4867849051952362,0.95,0.82,0.0004999999999999997
1350,0.3633483946323395,0.48680010437965393,0.95,0.82,0.0004999999999999997
1351,0.36334818601608276,0.48681530356407166,0.95,0.82,0.0004999999999999997
1352,0.363348126411438,0.48683059215545654,0.95,0.82,0.0004999999999999997
1353,0.3633479177951813,0.4868459403514862,0.95,0.82,0.0004999999999999997
1354,0.3633478283882141,0.48686110973358154,0.95,0.82,0.0004999999999999997
1355,0.3633476495742798,0.486876517534256,0.95,0.82,0.0004999999999999997
1356,0.36334750056266785,0.48689189553260803,0.95,0.82,0.0004999999999999997
1357,0.3633473515510559,0.4869072735309601,0.95,0.82,0.0004999999999999997
1358,0.3633471727371216,0.4869227111339569,0.95,0.82,0.0004999999999999997
1359,0.3633470833301544,0.4869382083415985,0.95,0.82,0.0004999999999999997
1360,0.3633469045162201,0.4869537651538849,0.95,0.82,0.0004999999999999997
1361,0.3633466958999634,0.48696938157081604,0.95,0.82,0.0004999999999999997
1362,0.3633466064929962,0.4869850277900696,0.95,0.82,0.00039685026299204955
1363,0.36334648728370667,0.48699742555618286,0.95,0.82,0.00039685026299204955
1364,0.3633463382720947,0.4870097041130066,0.95,0.82,0.00039685026299204955
1365,0.3633462190628052,0.4870222508907318,0.95,0.82,0.00039685026299204955
1366,0.36334607005119324,0.4870346784591675,0.95,0.82,0.00039685026299204955
1367,0.3633459806442261,0.4870472252368927,0.95,0.82,0.00039685026299204955
1368,0.3633459210395813,0.48705968260765076,0.95,0.82,0.00039685026299204955
1369,0.3633457124233246,0.4870721697807312,0.95,0.82,0.00039685026299204955
1370,0.3633456528186798,0.4870847761631012,0.95,0.82,0.00039685026299204955
1371,0.36334553360939026,0.4870973527431488,0.95,0.82,0.00039685026299204955
1372,0.3633453845977783,0.487109899520874,0.95,0.82,0.00039685026299204955
1373,0.36334529519081116,0.4871225357055664,0.95,0.82,0.00039685026299204955
1374,0.3633451461791992,0.4871352016925812,0.95,0.82,0.00039685026299204955
1375,0.36334505677223206,0.48714783787727356,0.95,0.82,0.00039685026299204955
1376,0.3633449077606201,0.48716050386428833,0.95,0.82,0.00039685026299204955
1377,0.36334487795829773,0.4871731996536255,0.95,0.82,0.00039685026299204955
1378,0.3633447289466858,0.48718586564064026,0.95,0.82,0.00039685026299204955
1379,0.36334460973739624,0.4871985912322998,0.95,0.82,0.00039685026299204955
1380,0.3633444905281067,0.4872113764286041,0.95,0.82,0.00039685026299204955
1381,0.36334437131881714,0.48722416162490845,0.95,0.82,0.00039685026299204955
1382,0.36334428191185,0.48723697662353516,0.95,0.82,0.00039685026299204955
1383,0.3633441627025604,0.48724979162216187,0.95,0.82,0.00039685026299204955
1384,0.36334407329559326,0.48726263642311096,0.95,0.82,0.00039685026299204955
1385,0.3633439242839813,0.48727551102638245,0.95,0.82,0.00039685026299204955
1386,0.36334383487701416,0.48728832602500916,0.95,0.82,0.00039685026299204955
1387,0.3633437752723694,0.4873012602329254,0.95,0.82,0.00039685026299204955
1388,0.36334362626075745,0.48731425404548645,0.95,0.82,0.00039685026299204955
1389,0.3633435368537903,0.4873272180557251,0.95,0.82,0.00039685026299204955
1390,0.3633434772491455,0.4873403310775757,0.95,0.82,0.00039685026299204955
1391,0.3633432686328888,0.4873533546924591,0.95,0.82,0.00039685026299204955
1392,0.36334314942359924,0.48736637830734253,0.95,0.82,0.00039685026299204955
1393,0.3633430600166321,0.4873794913291931,0.95,0.82,0.00039685026299204955
1394,0.3633430004119873,0.4873926043510437,0.95,0.82,0.00039685026299204955
1395,0.36334288120269775,0.4874058663845062,0.95,0.82,0.00039685026299204955
1396,0.3633427321910858,0.48741909861564636,0.95,0.82,0.00039685026299204955
1397,0.36334267258644104,0.48743224143981934,0.95,0.82,0.00039685026299204955
1398,0.3633425235748291,0.487445592880249,0.95,0.82,0.00039685026299204955
1399,0.36334240436553955,0.48745888471603394,0.95,0.82,0.00039685026299204955
1400,0.36334228515625,0.48747217655181885,0.95,0.82,0.00039685026299204955
1401,0.36334219574928284,0.48748549818992615,0.95,0.82,0.00039685026299204955
1402,0.3633420467376709,0.4874988794326782,0.95,0.82,0.00039685026299204955
1403,0.3633420169353485,0.4875122904777527,0.95,0.82,0.00039685026299204955
1404,0.3633418381214142,0.4875257611274719,0.95,0.82,0.00039685026299204955
1405,0.363341748714447,0.4875392019748688,0.95,0.82,0.00039685026299204955
1406,0.36334168910980225,0.4875526428222656,0.95,0.82,0.00039685026299204955
1407,0.3633415699005127,0.48756617307662964,0.95,0.82,0.00039685026299204955
1408,0.3633415102958679,0.48757973313331604,0.95,0.82,0.00039685026299204955
1409,0.363341361284256,0.48759326338768005,0.95,0.82,0.00039685026299204955
1410,0.36334118247032166,0.48760688304901123,0.95,0.82,0.00039685026299204955
1411,0.36334115266799927,0.48762047290802,0.95,0.82,0.00039685026299204955
1412,0.3633410632610321,0.4876341223716736,0.95,0.82,0.00039685026299204955
1413,0.36334097385406494,0.4876478612422943,0.95,0.82,0.00039685026299204955
1414,0.363340824842453,0.48766160011291504,0.95,0.82,0.00039685026299204955
1415,0.3633407652378082,0.48767536878585815,0.95,0.82,0.00039685026299204955
1416,0.3633406162261963,0.4876890480518341,0.95,0.82,0.00039685026299204955
1417,0.36334049701690674,0.4877029359340668,0.95,0.82,0.00039685026299204955
1418,0.3633403778076172,0.48771676421165466,0.95,0.82,0.00039685026299204955
1419,0.36334022879600525,0.48773062229156494,0.95,0.82,0.00039685026299204955
1420,0.36334019899368286,0.4877445697784424,0.95,0.82,0.00039685026299204955
1421,0.36334002017974854,0.48775845766067505,0.95,0.82,0.00039685026299204955
1422,0.36333996057510376,0.48777249455451965,0.95,0.82,0.00039685026299204955
1423,0.3633398711681366,0.4877864122390747,0.95,0.82,0.00039685026299204955
1424,0.36333978176116943,0.4878004193305969,0.95,0.82,0.00039685026299204955
1425,0.36333969235420227,0.4878145158290863,0.95,0.82,0.00039685026299204955
1426,0.3633395731449127,0.4878286123275757,0.95,0.82,0.00039685026299204955
1427,0.36333945393562317,0.48784270882606506,0.95,0.82,0.00039685026299204955
1428,0.3633393347263336,0.48785674571990967,0.95,0.82,0.00039685026299204955
1429,0.36333924531936646,0.4878710210323334,0.95,0.82,0.00039685026299204955
1430,0.3633391559123993,0.4878852963447571,0.95,0.82,0.00039685026299204955
1431,0.36333903670310974,0.48789942264556885,0.95,0.82,0.00039685026299204955
1432,0.3633389174938202,0.48791372776031494,0.95,0.82,0.00039685026299204955
1433,0.3633388578891754,0.48792797327041626,0.95,0.82,0.00039685026299204955
1434,0.36333873867988586,0.48794233798980713,0.95,0.82,0.00039685026299204955
1435,0.3633386194705963,0.4879566431045532,0.95,0.82,0.00039685026299204955
1436,0.36333855986595154,0.48797112703323364,0.95,0.82,0.00039685026299204955
1437,0.363338440656662,0.48798543214797974,0.95,0.82,0.00039685026299204955
1438,0.3633383512496948,0.48799994587898254,0.95,0.82,0.00039685026299204955
1439,0.3633382320404053,0.4880143702030182,0.95,0.82,0.00039685026299204955
1440,0.3633381128311157,0.4880289137363434,0.95,0.82,0.00039685026299204955
1441,0.36333802342414856,0.48804348707199097,0.95,0.82,0.00039685026299204955
1442,0.36333802342414856,0.488057941198349,0.95,0.82,0.00039685026299204955
1443,0.363337904214859,0.4880726933479309,0.95,0.82,0.00039685026299204955
1444,0.36333775520324707,0.4880872666835785,0.95,0.82,0.00039685026299204955
1445,0.3633376955986023,0.488101989030838,0.95,0.82,0.00039685026299204955
1446,0.3633374869823456,0.48811668157577515,0.95,0.82,0.00039685026299204955
1447,0.3633374869823456,0.48813140392303467,0.95,0.82,0.00039685026299204955
1448,0.36333733797073364,0.48814624547958374,0.95,0.82,0.00039685026299204955
1449,0.3633372485637665,0.48816099762916565,0.95,0.82,0.00039685026299204955
1450,0.36333709955215454,0.4881759583950043,0.95,0.82,0.00039685026299204955
1451,0.36333709955215454,0.48819082975387573,0.95,0.82,0.00039685026299204955
1452,0.363336980342865,0.48820579051971436,0.95,0.82,0.00039685026299204955
1453,0.36333686113357544,0.48822081089019775,0.95,0.82,0.00039685026299204955
1454,0.36333680152893066,0.488235741853714,0.95,0.82,0.00039685026299204955
1455,0.3633366525173187,0.48825085163116455,0.95,0.82,0.00039685026299204955
1456,0.36333656311035156,0.4882658123970032,0.95,0.82,0.00039685026299204955
1457,0.363336443901062,0.4882809519767761,0.95,0.82,0.00039685026299204955
1458,0.36333632469177246,0.4882960617542267,0.95,0.82,0.00039685026299204955
1459,0.3633362948894501,0.488311231136322,0.95,0.82,0.00039685026299204955
1460,0.3633362054824829,0.48832643032073975,0.95,0.82,0.00039685026299204955
1461,0.36333605647087097,0.48834171891212463,0.95,0.82,0.00039685026299204955
1462,0.3633359968662262,0.48835697770118713,0.95,0.82,0.00039685026299204955
1463,0.36333584785461426,0.488372266292572,0.95,0.82,0.00031498026247371797
1464,0.3633357584476471,0.48838433623313904,0.95,0.82,0.00031498026247371797
1465,0.3633357286453247,0.488396555185318,0.95,0.82,0.00031498026247371797
1466,0.36333563923835754,0.48840874433517456,0.95,0.82,0.00031498026247371797
1467,0.363335520029068,0.48842093348503113,0.95,0.82,0.00031498026247371797
1468,0.3633354902267456,0.48843324184417725,0.95,0.82,0.00031498026247371797
1469,0.36333543062210083,0.4884454309940338,0.95,0.82,0.00031498026247371797
1470,0.36333534121513367,0.4884577989578247,0.95,0.82,0.00031498026247371797
1471,0.3633352220058441,0.48847007751464844,0.95,0.82,0.00031498026247371797
1472,0.36333519220352173,0.48848244547843933,0.95,0.82,0.00031498026247371797
1473,0.36333510279655457,0.4884948432445526,0.95,0.82,0.00031498026247371797
1474,0.3633350729942322,0.4885071814060211,0.95,0.82,0.00031498026247371797
1475,0.3633349537849426,0.4885195195674896,0.95,0.82,0.00031498026247371797
1476,0.36333489418029785,0.48853203654289246,0.95,0.82,0.00031498026247371797
1477,0.3633348345756531,0.4885444939136505,0.95,0.82,0.00031498026247371797
1478,0.36333468556404114,0.48855701088905334,0.95,0.82,0.00031498026247371797
1479,0.36333465576171875,0.488569438457489,0.95,0.82,0.00031498026247371797
1480,0.36333462595939636,0.48858195543289185,0.95,0.82,0.00031498026247371797
1481,0.3633345067501068,0.488594651222229,0.95,0.82,0.00031498026247371797
1482,0.36333441734313965,0.4886072278022766,0.95,0.82,0.00031498026247371797
1483,0.36333438754081726,0.4886198043823242,0.95,0.82,0.00031498026247371797
1484,0.3633342981338501,0.4886323809623718,0.95,0.82,0.00031498026247371797
1485,0.36333414912223816,0.4886450469493866,0.95,0.82,0.00031498026247371797
1486,0.36333411931991577,0.48865780234336853,0.95,0.82,0.00031498026247371797
1487,0.363334059715271,0.4886704385280609,0.95,0.82,0.00031498026247371797
1488,0.3633340001106262,0.4886832535266876,0.95,0.82,0.00031498026247371797
1489,0.36333394050598145,0.4886958599090576,0.95,0.82,0.00031498026247371797
1490,0.36333388090133667,0.48870864510536194,0.95,0.82,0.00031498026247371797
1491,0.3633337914943695,0.48872146010398865,0.95,0.82,0.00031498026247371797
1492,0.36333367228507996,0.4887342154979706,0.95,0.82,0.00031498026247371797
1493,0.3633336126804352,0.48874714970588684,0.95,0.82,0.00031498026247371797
1494,0.3633335530757904,0.4887599050998688,0.95,0.82,0.00031498026247371797
1495,0.363333523273468,0.48877280950546265,0.95,0.82,0.00031498026247371797
1496,0.36333343386650085,0.4887857139110565,0.95,0.82,0.00031498026247371797
1497,0.3633333146572113,0.4887985587120056,0.95,0.82,0.00031498026247371797
1498,0.3633332848548889,0.48881152272224426,0.95,0.82,0.00031498026247371797
1499,0.36333319544792175,0.48882460594177246,0.95,0.82,0.00031498026247371797
1500,0.363333135843277,0.48883768916130066,0.95,0.82,0.00031498026247371797
1501,0.3633330166339874,0.4888506233692169,0.95,0.82,0.00031498026247371797
1502,0.36333292722702026,0.48886382579803467,0.95,0.82,0.00031498026247371797
1503,0.3633328974246979,0.48887690901756287,0.95,0.82,0.00031498026247371797
1504,0.3633328378200531,0.4888901114463806,0.95,0.82,0.00031498026247371797
1505,0.3633327782154083,0.4889031946659088,0.95,0.82,0.00031498026247371797
1506,0.36333271861076355,0.48891642689704895,0.95,0.82,0.00031498026247371797
1507,0.363332599401474,0.48892974853515625,0.95,0.82,0.00031498026247371797
1508,0.36333250999450684,0.4889429211616516,0.95,0.82,0.00031498026247371797
1509,0.36333248019218445,0.48895615339279175,0.95,0.82,0.00031498026247371797
1510,0.36333245038986206,0.4889694154262543,0.95,0.82,0.00031498026247371797
1511,0.3633323609828949,0.4889827370643616,0.95,0.82,0.00031498026247371797
1512,0.36333224177360535,0.48899611830711365,0.95,0.82,0.00031498026247371797
1513,0.36333218216896057,0.48900946974754333,0.95,0.82,0.00031498026247371797
1514,0.3633320927619934,0.489022821187973,0.95,0.82,0.00031498026247371797
1515,0.363332062959671,0.4890361428260803,0.95,0.82,0.00031498026247371797
1516,0.36333197355270386,0.48904967308044434,0.95,0.82,0.00031498026247371797
1517,0.3633319139480591,0.4890631437301636,0.95,0.82,0.00031498026247371797
1518,0.3633318841457367,0.4890766143798828,0.95,0.82,0.00031498026247371797
1519,0.36333176493644714,0.4890901446342468,0.95,0.82,0.00031498026247371797
1520,0.36333167552948,0.4891037344932556,0.95,0.82,0.00031498026247371797
1521,0.36333155632019043,0.48911726474761963,0.95,0.82,0.00031498026247371797
1522,0.36333155632019043,0.4891309440135956,0.95,0.82,0.00031498026247371797
1523,0.3633314371109009,0.4891444444656372,0.95,0.82,0.00031498026247371797
1524,0.3633314073085785,0.4891582429409027,0.95,0.82,0.00031498026247371797
1525,0.3633313477039337,0.48917195200920105,0.95,0.82,0.00031498026247371797
1526,0.36333122849464417,0.4891856908798218,0.95,0.82,0.00031498026247371797
1527,0.363331139087677,0.4891994595527649,0.95,0.82,0.00031498026247371797
1528,0.3633311092853546,0.48921334743499756,0.95,0.82,0.00031498026247371797
1529,0.3633310794830322,0.4892270267009735,0.95,0.82,0.00031498026247371797
1530,0.3633309602737427,0.4892407953739166,0.95,0.82,0.00031498026247371797
1531,0.3633309602737427,0.4892547130584717,0.95,0.82,0.00031498026247371797
1532,0.3633308708667755,0.48926860094070435,0.95,0.82,0.00031498026247371797
1533,0.36333081126213074,0.4892825782299042,0.95,0.82,0.00031498026247371797
1534,0.3633307218551636,0.48929640650749207,0.95,0.82,0.00031498026247371797
1535,0.363330602645874,0.4893103837966919,0.95,0.82,0.00031498026247371797
1536,0.363330602645874,0.4893243908882141,0.95,0.82,0.00031498026247371797
1537,0.3633304834365845,0.48933836817741394,0.95,0.82,0.00031498026247371797
1538,0.3633304834365845,0.4893524646759033,0.95,0.82,0.00031498026247371797
1539,0.36333033442497253,0.4893665611743927,0.95,0.82,0.00031498026247371797
1540,0.36333027482032776,0.4893805980682373,0.95,0.82,0.00031498026247371797
1541,0.36333024501800537,0.48939475417137146,0.95,0.82,0.00031498026247371797
1542,0.36333024501800537,0.489408940076828,0.95,0.82,0.00031498026247371797
1543,0.36333006620407104,0.4894232153892517,0.95,0.82,0.00031498026247371797
1544,0.36333003640174866,0.48943740129470825,0.95,0.82,0.00031498026247371797
1545,0.3633299767971039,0.48945167660713196,0.95,0.82,0.00031498026247371797
1546,0.3633298873901367,0.48946601152420044,0.95,0.82,0.00031498026247371797
1547,0.36332985758781433,0.489480197429657,0.95,0.82,0.00031498026247371797
1548,0.3633297383785248,0.4894946217536926,0.95,0.82,0.00031498026247371797
1549,0.3633297085762024,0.4895089268684387,0.95,0.82,0.00031498026247371797
1550,0.36332958936691284,0.48952338099479675,0.95,0.82,0.00031498026247371797
1551,0.36332952976226807,0.48953789472579956,0.95,0.82,0.00031498026247371797
1552,0.3633294999599457,0.4895523190498352,0.95,0.82,0.00031498026247371797
1553,0.36332938075065613,0.4895668029785156,0.95,0.82,0.00031498026247371797
1554,0.36332935094833374,0.48958128690719604,0.95,0.82,0.00031498026247371797
1555,0.36332929134368896,0.48959583044052124,0.95,0.82,0.00031498026247371797
1556,0.3633292019367218,0.4896104335784912,0.95,0.82,0.00031498026247371797
1557,0.3633292019367218,0.4896250069141388,0.95,0.82,0.00031498026247371797
1558,0.36332905292510986,0.48963966965675354,0.95,0.82,0.00031498026247371797
1559,0.3633290231227875,0.4896543025970459,0.95,0.82,0.00031498026247371797
1560,0.3633289039134979,0.4896690249443054,0.95,0.82,0.00031498026247371797
1561,0.3633289039134979,0.48968368768692017,0.95,0.82,0.00031498026247371797
1562,0.3633287847042084,0.4896984100341797,0.95,0.82,0.00031498026247371797
1563,0.3633286952972412,0.4897131621837616,0.95,0.82,0.00031498026247371797
1564,0.3633286654949188,0.4897279739379883,0.95,0.82,0.0002499999999999997
1565,0.3633286654949188,0.48973986506462097,0.95,0.82,0.0002499999999999997
1566,0.3633285164833069,0.4897516369819641,0.95,0.82,0.0002499999999999997
1567,0.3633285164833069,0.48976337909698486,0.95,0.82,0.0002499999999999997
1568,0.3633284866809845,0.4897752106189728,0.95,0.82,0.0002499999999999997
1569,0.36332836747169495,0.4897869825363159,0.95,0.82,0.0002499999999999997
1570,0.36332836747169495,0.4897989332675934,0.95,0.82,0.0002499999999999997
1571,0.3633282780647278,0.4898107945919037,0.95,0.82,0.0002499999999999997
1572,0.363328218460083,0.4898226857185364,0.95,0.82,0.0002499999999999997
1573,0.36332815885543823,0.4898345470428467,0.95,0.82,0.0002499999999999997
1574,0.36332812905311584,0.48984652757644653,0.95,0.82,0.0002499999999999997
1575,0.36332812905311584,0.4898585081100464,0.95,0.82,0.0002499999999999997
1576,0.36332806944847107,0.48987051844596863,0.95,0.82,0.0002499999999999997
1577,0.3633280098438263,0.48988258838653564,0.95,0.82,0.0002499999999999997
1578,0.36332789063453674,0.4898945093154907,0.95,0.82,0.0002499999999999997
1579,0.36332786083221436,0.4899066686630249,0.95,0.82,0.0002499999999999997
1580,0.36332783102989197,0.48991870880126953,0.95,0.82,0.0002499999999999997
1581,0.3633278012275696,0.4899308383464813,0.95,0.82,0.0002499999999999997
1582,0.36332768201828003,0.48994290828704834,0.95,0.82,0.0002499999999999997
1583,0.36332768201828003,0.4899550676345825,0.95,0.82,0.0002499999999999997
1584,0.3633275628089905,0.4899671673774719,0.95,0.82,0.0002499999999999997
1585,0.3633275330066681,0.48997923731803894,0.95,0.82,0.0002499999999999997
1586,0.3633274734020233,0.4899914562702179,0.95,0.82,0.0002499999999999997
1587,0.3633274435997009,0.49000367522239685,0.95,0.82,0.0002499999999999997
1588,0.36332741379737854,0.49001583456993103,0.95,0.82,0.0002499999999999997
1589,0.3633273243904114,0.4900280237197876,0.95,0.82,0.0002499999999999997
1590,0.363327294588089,0.4900403320789337,0.95,0.82,0.0002499999999999997
1591,0.3633272051811218,0.49005258083343506,0.95,0.82,0.0002499999999999997
1592,0.36332717537879944,0.4900647699832916,0.95,0.82,0.0002499999999999997
1593,0.36332711577415466,0.4900771379470825,0.95,0.82,0.0002499999999999997
1594,0.3633270561695099,0.4900895059108734,0.95,0.82,0.0002499999999999997
1595,0.3633270561695099,0.49010178446769714,0.95,0.82,0.0002499999999999997
1596,0.3633269965648651,0.4901141822338104,0.95,0.82,0.0002499999999999997
1597,0.36332693696022034,0.49012652039527893,0.95,0.82,0.0002499999999999997
1598,0.3633268475532532,0.490138977766037,0.95,0.82,0.0002499999999999997
1599,0.3633267879486084,0.4901513159275055,0.95,0.82,0.0002499999999999997
1600,0.3633267283439636,0.4901639223098755,0.95,0.82,0.0002499999999999997
1601,0.3633267283439636,0.49017632007598877,0.95,0.82,0.0002499999999999997
1602,0.36332663893699646,0.490188866853714,0.95,0.82,0.0002499999999999997
1603,0.3633266091346741,0.4902013838291168,0.95,0.82,0.0002499999999999997
1604,0.3633266091346741,0.49021393060684204,0.95,0.82,0.0002499999999999997
1605,0.3633264899253845,0.49022650718688965,0.95,0.82,0.0002499999999999997
1606,0.3633264899253845,0.49023905396461487,0.95,0.82,0.0002499999999999997
1607,0.36332643032073975,0.49025169014930725,0.95,0.82,0.0002499999999999997
1608,0.3633263409137726,0.49026432633399963,0.95,0.82,0.0002499999999999997
1609,0.36332637071609497,0.49027693271636963,0.95,0.82,0.0002499999999999997
1610,0.3633262515068054,0.4902896583080292,0.95,0.82,0.0002499999999999997
1611,0.36332622170448303,0.4903024435043335,0.95,0.82,0.0002499999999999997
1612,0.36332616209983826,0.4903150200843811,0.95,0.82,0.0002499999999999997
1613,0.3633261024951935,0.49032774567604065,0.95,0.82,0.0002499999999999997
1614,0.3633260428905487,0.4903405010700226,0.95,0.82,0.0002499999999999997
1615,0.3633260428905487,0.4903533458709717,0.95,0.82,0.0002499999999999997
1616,0.36332595348358154,0.4903661012649536,0.95,0.82,0.0002499999999999997
1617,0.36332589387893677,0.4903789162635803,0.95,0.82,0.0002499999999999997
1618,0.363325834274292,0.4903918206691742,0.95,0.82,0.0002499999999999997
1619,0.3633258044719696,0.4904046952724457,0.95,0.82,0.0002499999999999997
1620,0.36332571506500244,0.49041756987571716,0.95,0.82,0.0002499999999999997
1621,0.36332571506500244,0.4904305338859558,0.95,0.82,0.0002499999999999997
1622,0.3633256256580353,0.4904434084892273,0.95,0.82,0.0002499999999999997
1623,0.3633255660533905,0.49045634269714355,0.95,0.82,0.0002499999999999997
1624,0.3633255362510681,0.490469366312027,0.95,0.82,0.0002499999999999997
1625,0.36332547664642334,0.4904822111129761,0.95,0.82,0.0002499999999999997
1626,0.36332547664642334,0.4904952347278595,0.95,0.82,0.0002499999999999997
1627,0.36332541704177856,0.49050822854042053,0.95,0.82,0.0002499999999999997
1628,0.363325297832489,0.49052125215530396,0.95,0.82,0.0002499999999999997
1629,0.363325297832489,0.490534245967865,0.95,0.82,0.0002499999999999997
1630,0.3633252680301666,0.49054741859436035,0.95,0.82,0.0002499999999999997
1631,0.3633251488208771,0.49056050181388855,0.95,0.82,0.0002499999999999997
1632,0.3633251488208771,0.490573525428772,0.95,0.82,0.0002499999999999997
1633,0.3633250892162323,0.4905867874622345,0.95,0.82,0.0002499999999999997
1634,0.3633250892162323,0.49059993028640747,0.95,0.82,0.0002499999999999997
1635,0.36332499980926514,0.49061310291290283,0.95,0.82,0.0002499999999999997
1636,0.36332494020462036,0.4906263053417206,0.95,0.82,0.0002499999999999997
1637,0.3633248507976532,0.4906395375728607,0.95,0.82,0.0002499999999999997
1638,0.3633248507976532,0.49065276980400085,0.95,0.82,0.0002499999999999997
1639,0.3633248209953308,0.49066609144210815,0.95,0.82,0.0002499999999999997
1640,0.36332473158836365,0.49067938327789307,0.95,0.82,0.0002499999999999997
1641,0.36332467198371887,0.49069279432296753,0.95,0.82,0.0002499999999999997
1642,0.3633246123790741,0.4907061457633972,0.95,0.82,0.0002499999999999997
1643,0.3633245825767517,0.49071964621543884,0.95,0.82,0.0002499999999999997
1644,0.3633245825767517,0.49073299765586853,0.95,0.82,0.0002499999999999997
1645,0.36332452297210693,0.4907463788986206,0.95,0.82,0.0002499999999999997
1646,0.36332446336746216,0.49075984954833984,0.95,0.82,0.0002499999999999997
1647,0.36332443356513977,0.4907732903957367,0.95,0.82,0.0002499999999999997
1648,0.3633243143558502,0.4907868206501007,0.95,0.82,0.0002499999999999997
1649,0.3633243143558502,0.49080029129981995,0.95,0.82,0.0002499999999999997
