,train loss,val loss,train acc,val acc,lr
0,0.6585232019424438,0.5819306373596191,0.74,0.73,0.001
1,0.5576233863830566,0.5585077404975891,0.77,0.77,0.001
2,0.5361624360084534,0.5466732382774353,0.76,0.76,0.001
3,0.5234145522117615,0.5377708673477173,0.77,0.76,0.001
4,0.5080798864364624,0.5299418568611145,0.78,0.81,0.001
5,0.5015904903411865,0.5228005647659302,0.79,0.81,0.001
6,0.49078086018562317,0.5161597728729248,0.82,0.82,0.001
7,0.4802769124507904,0.5101751089096069,0.85,0.82,0.001
8,0.47191473841667175,0.5064298510551453,0.86,0.81,0.001
9,0.4680732488632202,0.5041650533676147,0.85,0.8,0.001
10,0.4589504897594452,0.5023030638694763,0.88,0.78,0.001
11,0.4548913240432739,0.5007692575454712,0.9,0.77,0.001
12,0.44991832971572876,0.49907898902893066,0.88,0.77,0.001
13,0.44215911626815796,0.4980233907699585,0.88,0.76,0.001
14,0.43723952770233154,0.49700072407722473,0.89,0.76,0.001
15,0.4313676059246063,0.4953444302082062,0.9,0.77,0.001
16,0.4319521188735962,0.4936843812465668,0.88,0.77,0.001
17,0.4263838529586792,0.49189966917037964,0.9,0.77,0.001
18,0.42523685097694397,0.49006545543670654,0.92,0.77,0.001
19,0.4216751754283905,0.488388329744339,0.92,0.77,0.001
20,0.4163930416107178,0.4860690236091614,0.92,0.77,0.001
21,0.4174734950065613,0.4835336208343506,0.92,0.77,0.001
22,0.41241222620010376,0.48158276081085205,0.92,0.78,0.001
23,0.4045630395412445,0.47926920652389526,0.94,0.81,0.001
24,0.40621045231819153,0.4759471118450165,0.93,0.8,0.001
25,0.4016677141189575,0.47336602210998535,0.94,0.8,0.001
26,0.4025599956512451,0.4690112769603729,0.93,0.82,0.001
27,0.3949210047721863,0.46364617347717285,0.94,0.82,0.001
28,0.3943614959716797,0.46250393986701965,0.95,0.84,0.001
29,0.39395955204963684,0.4591478109359741,0.95,0.83,0.001
30,0.3880153000354767,0.4555191695690155,0.95,0.83,0.001
31,0.3851478695869446,0.4548046588897705,0.96,0.85,0.001
32,0.3776676654815674,0.45215538144111633,0.96,0.85,0.001
33,0.378703773021698,0.4539036154747009,0.96,0.87,0.001
34,0.3788220286369324,0.45287570357322693,0.95,0.85,0.001
35,0.37686461210250854,0.4513643980026245,0.95,0.86,0.001
36,0.37109705805778503,0.4475914239883423,0.96,0.86,0.001
37,0.3666848838329315,0.44477859139442444,0.98,0.87,0.001
38,0.3738076388835907,0.44889014959335327,0.97,0.86,0.001
39,0.3635381758213043,0.4478124678134918,0.97,0.85,0.001
40,0.36157429218292236,0.441353976726532,0.97,0.87,0.001
41,0.36155226826667786,0.4379069209098816,0.97,0.87,0.001
42,0.35842427611351013,0.44907695055007935,0.97,0.86,0.001
43,0.3585668206214905,0.44173943996429443,0.98,0.86,0.001
44,0.35555005073547363,0.43776389956474304,0.98,0.88,0.001
45,0.3561302423477173,0.438096284866333,0.98,0.86,0.001
46,0.35070285201072693,0.4424697160720825,0.98,0.85,0.001
47,0.35227829217910767,0.4361865222454071,0.98,0.88,0.001
48,0.3487016558647156,0.4317421019077301,0.98,0.88,0.001
49,0.3490295112133026,0.4317938983440399,0.98,0.86,0.001
50,0.34879863262176514,0.4326350688934326,0.98,0.85,0.001
51,0.3483150899410248,0.4332268238067627,0.98,0.87,0.001
52,0.3466179668903351,0.42630743980407715,0.98,0.88,0.001
53,0.3448249101638794,0.42625892162323,0.98,0.89,0.001
54,0.34242716431617737,0.4230724573135376,0.98,0.89,0.001
55,0.34267210960388184,0.418975293636322,0.98,0.9,0.001
56,0.3413197696208954,0.4196550250053406,0.98,0.88,0.001
57,0.34155750274658203,0.41755393147468567,0.98,0.9,0.001
58,0.33982551097869873,0.413597971200943,0.98,0.93,0.001
59,0.3397441804409027,0.41452598571777344,0.98,0.9,0.001
60,0.33879226446151733,0.41859668493270874,0.98,0.89,0.001
61,0.3352549076080322,0.4166453182697296,0.98,0.89,0.001
62,0.33762127161026,0.4054708480834961,0.98,0.93,0.001
63,0.3359439969062805,0.41650858521461487,0.99,0.91,0.001
64,0.3382816016674042,0.40952643752098083,0.99,0.92,0.001
65,0.3411775529384613,0.4145522713661194,0.99,0.92,0.001
66,0.33505451679229736,0.41377872228622437,0.99,0.91,0.001
67,0.3360065519809723,0.4375615417957306,0.99,0.85,0.001
68,0.33388152718544006,0.4064182937145233,0.99,0.92,0.001
69,0.3320505619049072,0.4036461114883423,0.99,0.93,0.001
70,0.33304470777511597,0.4083728790283203,0.99,0.92,0.001
71,0.33245494961738586,0.4158410131931305,0.99,0.89,0.001
72,0.3314444422721863,0.4148964285850525,0.99,0.9,0.001
73,0.3306697607040405,0.4092753231525421,0.99,0.91,0.001
74,0.3305615484714508,0.40235435962677,0.99,0.93,0.001
75,0.3302665650844574,0.39944905042648315,0.99,0.93,0.001
76,0.3288288116455078,0.4006746709346771,0.99,0.92,0.001
77,0.3286246061325073,0.39987850189208984,0.99,0.93,0.001
78,0.3282812535762787,0.39939120411872864,0.99,0.93,0.001
79,0.3279198408126831,0.4050113558769226,0.99,0.92,0.001
80,0.3272286355495453,0.4156096577644348,0.99,0.9,0.001
81,0.32791051268577576,0.41455796360969543,0.99,0.9,0.001
82,0.3269725739955902,0.4073679745197296,0.99,0.92,0.001
83,0.32683467864990234,0.40165287256240845,0.99,0.92,0.001
84,0.32633307576179504,0.3982621431350708,0.99,0.93,0.001
85,0.3266986012458801,0.3964991867542267,0.99,0.93,0.001
86,0.32650527358055115,0.3967924118041992,0.99,0.93,0.001
87,0.3262539803981781,0.39848101139068604,0.99,0.93,0.001
88,0.32591384649276733,0.3998253643512726,0.99,0.93,0.001
89,0.32608070969581604,0.4005611836910248,0.99,0.93,0.001
90,0.32565513253211975,0.40091148018836975,0.99,0.93,0.001
91,0.325912207365036,0.40137919783592224,0.99,0.93,0.001
92,0.3256927728652954,0.4004698097705841,0.99,0.93,0.001
93,0.3254729211330414,0.40041282773017883,0.99,0.93,0.001
94,0.3256433606147766,0.4004392921924591,0.99,0.93,0.001
95,0.32526713609695435,0.4010196328163147,0.99,0.92,0.001
96,0.3253255784511566,0.40088534355163574,0.99,0.93,0.001
97,0.32515189051628113,0.39990395307540894,0.99,0.93,0.001
98,0.32510387897491455,0.3980714678764343,0.99,0.93,0.001
99,0.325163871049881,0.3966635465621948,0.99,0.93,0.001
100,0.3250513970851898,0.39503777027130127,0.99,0.92,0.001
101,0.3248644769191742,0.3950199782848358,0.99,0.92,0.001
102,0.3248876929283142,0.3962688148021698,0.99,0.93,0.001
103,0.3248073160648346,0.3986971974372864,0.99,0.92,0.001
104,0.3247431516647339,0.40144622325897217,0.99,0.92,0.001
105,0.3247518539428711,0.4029558300971985,0.99,0.92,0.001
106,0.32471945881843567,0.4028646945953369,0.99,0.92,0.001
107,0.32469692826271057,0.40113553404808044,0.99,0.92,0.001
108,0.3245687782764435,0.399283230304718,0.99,0.93,0.001
109,0.32462355494499207,0.3975559175014496,0.99,0.93,0.001
110,0.3246360719203949,0.3955596685409546,0.99,0.93,0.001
111,0.324564129114151,0.39451390504837036,0.99,0.93,0.001
112,0.3247612714767456,0.39459049701690674,0.99,0.93,0.001
113,0.3245300054550171,0.39551642537117004,0.99,0.93,0.001
114,0.32442420721054077,0.39606425166130066,0.99,0.93,0.001
115,0.3245077431201935,0.39837947487831116,0.99,0.93,0.001
116,0.32452401518821716,0.4006531834602356,0.99,0.93,0.001
117,0.32441475987434387,0.40174639225006104,0.99,0.92,0.001
118,0.32446667551994324,0.40046077966690063,0.99,0.93,0.001
119,0.32434603571891785,0.39877018332481384,0.99,0.93,0.001
120,0.32437554001808167,0.3979765772819519,0.99,0.93,0.001
121,0.32458728551864624,0.3958166241645813,0.99,0.93,0.001
122,0.3243090808391571,0.3944288492202759,0.99,0.93,0.001
123,0.3243277370929718,0.39316627383232117,0.99,0.93,0.001
124,0.32429686188697815,0.39275527000427246,0.99,0.93,0.001
125,0.32419219613075256,0.39288273453712463,0.99,0.93,0.001
126,0.3242209553718567,0.39454445242881775,0.99,0.93,0.001
127,0.32424554228782654,0.3967326879501343,0.99,0.93,0.001
128,0.3241894841194153,0.39754757285118103,0.99,0.93,0.001
129,0.32426804304122925,0.39859047532081604,0.99,0.93,0.001
130,0.32432982325553894,0.399343878030777,0.99,0.93,0.001
131,0.3242197036743164,0.3987671136856079,0.99,0.93,0.001
132,0.32419613003730774,0.3972231149673462,0.99,0.93,0.001
133,0.3240957260131836,0.39554527401924133,0.99,0.93,0.001
134,0.3241638243198395,0.39441001415252686,0.99,0.93,0.001
135,0.32408276200294495,0.3941511809825897,0.99,0.93,0.001
136,0.3241398334503174,0.3946734666824341,0.99,0.93,0.001
137,0.32413214445114136,0.3954695463180542,0.99,0.93,0.001
138,0.32421788573265076,0.39668139815330505,0.99,0.93,0.001
139,0.32404670119285583,0.3974795639514923,0.99,0.93,0.001
140,0.3240431249141693,0.39763033390045166,0.99,0.93,0.001
141,0.3240511417388916,0.3975803256034851,0.99,0.93,0.001
142,0.3240656554698944,0.3974255621433258,0.99,0.93,0.001
143,0.3240228593349457,0.3977542221546173,0.99,0.93,0.001
144,0.3240613639354706,0.396946519613266,0.99,0.93,0.001
145,0.3240232765674591,0.3962874114513397,0.99,0.93,0.001
146,0.32396435737609863,0.3957314193248749,0.99,0.93,0.001
147,0.3239828944206238,0.3960602879524231,0.99,0.93,0.001
148,0.3240513503551483,0.39640122652053833,0.99,0.93,0.001
149,0.3239492177963257,0.3971918225288391,0.99,0.93,0.001
150,0.3240238130092621,0.39752209186553955,0.99,0.93,0.001
151,0.32397347688674927,0.39776670932769775,0.99,0.93,0.001
152,0.3239949941635132,0.39768028259277344,0.99,0.93,0.001
153,0.3239659368991852,0.3971763849258423,0.99,0.93,0.001
154,0.3239426910877228,0.39683544635772705,0.99,0.93,0.001
155,0.3239384591579437,0.3962043821811676,0.99,0.93,0.001
156,0.32392561435699463,0.3955058157444,0.99,0.93,0.001
157,0.3239188492298126,0.3955192565917969,0.99,0.93,0.001
158,0.3238171637058258,0.3952873647212982,0.99,0.93,0.001
159,0.32394111156463623,0.3957155644893646,0.99,0.93,0.001
160,0.3238653242588043,0.39602088928222656,0.99,0.93,0.001
161,0.323869526386261,0.39655953645706177,0.99,0.93,0.001
162,0.32386577129364014,0.39613333344459534,0.99,0.93,0.001
163,0.3238552510738373,0.39570915699005127,0.99,0.93,0.001
164,0.3238990306854248,0.3954769968986511,0.99,0.93,0.001
165,0.32380008697509766,0.39517155289649963,0.99,0.93,0.001
166,0.3238923251628876,0.3948438763618469,0.99,0.93,0.001
167,0.3238718509674072,0.39555424451828003,0.99,0.93,0.001
168,0.3238547146320343,0.3955290913581848,0.99,0.93,0.001
169,0.32383236289024353,0.3961527347564697,0.99,0.93,0.001
170,0.32380345463752747,0.3962910771369934,0.99,0.93,0.001
171,0.3238343894481659,0.3967537581920624,0.99,0.93,0.001
172,0.323860764503479,0.396518349647522,0.99,0.93,0.001
173,0.32380378246307373,0.3958223760128021,0.99,0.93,0.001
174,0.3237823247909546,0.39531248807907104,0.99,0.93,0.001
175,0.32377997040748596,0.39488133788108826,0.99,0.93,0.001
176,0.3237394094467163,0.39486008882522583,0.99,0.93,0.001
177,0.32379916310310364,0.39526787400245667,0.99,0.93,0.001
178,0.32381299138069153,0.39523565769195557,0.99,0.93,0.001
179,0.32380402088165283,0.3951472342014313,0.99,0.93,0.001
180,0.32376793026924133,0.39542827010154724,0.99,0.93,0.001
181,0.32377171516418457,0.3953249752521515,0.99,0.93,0.001
182,0.3237988352775574,0.39556896686553955,0.99,0.93,0.001
183,0.3237432539463043,0.396270215511322,0.99,0.93,0.001
184,0.32374459505081177,0.3960711658000946,0.99,0.93,0.001
185,0.32373106479644775,0.39615440368652344,0.99,0.93,0.001
186,0.3237704336643219,0.39614245295524597,0.99,0.93,0.001
187,0.32372361421585083,0.3957658112049103,0.99,0.93,0.001
188,0.32374733686447144,0.39475640654563904,0.99,0.93,0.001
189,0.32373225688934326,0.39419981837272644,0.99,0.93,0.001
190,0.3237604796886444,0.3937946557998657,0.99,0.93,0.001
191,0.32370471954345703,0.39360520243644714,0.99,0.93,0.001
192,0.3237481713294983,0.39403823018074036,0.99,0.93,0.001
193,0.3236807584762573,0.3943898677825928,0.99,0.93,0.001
194,0.3237850069999695,0.3949052393436432,0.99,0.93,0.001
195,0.3237544596195221,0.39527854323387146,0.99,0.93,0.001
196,0.32373929023742676,0.39548832178115845,0.99,0.93,0.001
197,0.32376426458358765,0.39504894614219666,0.99,0.93,0.001
198,0.3237473964691162,0.3942562937736511,0.99,0.93,0.001
199,0.3236854076385498,0.39412975311279297,0.99,0.93,0.001
200,0.3236862123012543,0.3941490948200226,0.99,0.93,0.001
201,0.32367566227912903,0.39428597688674927,0.99,0.93,0.001
202,0.3236643671989441,0.39396822452545166,0.99,0.93,0.001
203,0.32369256019592285,0.39427638053894043,0.99,0.93,0.001
204,0.32369622588157654,0.39512473344802856,0.99,0.93,0.001
205,0.3236983120441437,0.3956790268421173,0.99,0.93,0.001
206,0.3237018287181854,0.3960789442062378,0.99,0.93,0.001
207,0.3236834406852722,0.396850049495697,0.99,0.93,0.001
208,0.3237164318561554,0.3968709707260132,0.99,0.93,0.001
209,0.3237144351005554,0.3962341547012329,0.99,0.93,0.001
210,0.3236710727214813,0.39509013295173645,0.99,0.93,0.001
211,0.3236924707889557,0.39464348554611206,0.99,0.93,0.001
212,0.32365429401397705,0.3938036859035492,0.99,0.93,0.001
213,0.3236953020095825,0.39324015378952026,0.99,0.93,0.001
214,0.3236065208911896,0.3931870758533478,0.99,0.93,0.001
215,0.3236415386199951,0.3933107852935791,0.99,0.93,0.001
216,0.3236750364303589,0.3939252495765686,0.99,0.93,0.001
217,0.32364746928215027,0.39429882168769836,0.99,0.93,0.001
218,0.32363617420196533,0.39493128657341003,0.99,0.93,0.001
219,0.32363927364349365,0.39597752690315247,0.99,0.93,0.001
220,0.3236285150051117,0.39619967341423035,0.99,0.93,0.001
221,0.3236390948295593,0.3961677849292755,0.99,0.93,0.001
222,0.3236204981803894,0.39562538266181946,0.99,0.93,0.001
223,0.32363224029541016,0.39496734738349915,0.99,0.93,0.001
224,0.3236110210418701,0.39417925477027893,0.99,0.93,0.001
225,0.3236856460571289,0.3941003382205963,0.99,0.93,0.001
226,0.32361021637916565,0.3940565586090088,0.99,0.93,0.001
227,0.3235872685909271,0.39436444640159607,0.99,0.93,0.001
228,0.3236018717288971,0.3947086036205292,0.99,0.93,0.001
229,0.323663592338562,0.3953874111175537,0.99,0.93,0.001
230,0.32357704639434814,0.39538559317588806,0.99,0.93,0.001
231,0.3236214518547058,0.3956340551376343,0.99,0.93,0.001
232,0.32358261942863464,0.395827054977417,0.99,0.93,0.001
233,0.3235933780670166,0.396199494600296,0.99,0.93,0.001
234,0.3236497640609741,0.3966900706291199,0.99,0.93,0.001
235,0.3235850930213928,0.39608168601989746,0.99,0.93,0.001
236,0.32361599802970886,0.3956766426563263,0.99,0.93,0.001
237,0.3236202299594879,0.39499107003211975,0.99,0.93,0.001
238,0.32358330488204956,0.3944551944732666,0.99,0.93,0.001
239,0.3235674202442169,0.3938993215560913,0.99,0.93,0.001
240,0.3235994577407837,0.39389264583587646,0.99,0.93,0.001
241,0.32358255982398987,0.3939608037471771,0.99,0.93,0.001
242,0.323578417301178,0.3943411707878113,0.99,0.93,0.001
243,0.32355257868766785,0.3948684632778168,0.99,0.93,0.001
244,0.32358989119529724,0.39616096019744873,0.99,0.93,0.001
245,0.32353466749191284,0.39707329869270325,0.99,0.93,0.001
246,0.32355454564094543,0.39772874116897583,0.99,0.93,0.001
247,0.3236144185066223,0.3975991904735565,0.99,0.93,0.001
248,0.32356876134872437,0.39741092920303345,0.99,0.93,0.001
249,0.3235800862312317,0.3966911733150482,0.99,0.93,0.001
250,0.3235788643360138,0.3960513770580292,0.99,0.93,0.001
251,0.3235557973384857,0.39537549018859863,0.99,0.93,0.001
252,0.3235645294189453,0.39493101835250854,0.99,0.93,0.001
253,0.3235544264316559,0.3941555917263031,0.99,0.93,0.001
254,0.3235279321670532,0.39350560307502747,0.99,0.93,0.001
255,0.3235330581665039,0.3929567039012909,0.99,0.93,0.001
256,0.32356512546539307,0.39338523149490356,0.99,0.93,0.001
257,0.3235495388507843,0.3938406705856323,0.99,0.93,0.001
258,0.3235524296760559,0.3945593237876892,0.99,0.93,0.001
259,0.32352185249328613,0.39526957273483276,0.99,0.93,0.001
260,0.3235326111316681,0.3959277868270874,0.99,0.93,0.001
261,0.323527455329895,0.39615994691848755,0.99,0.93,0.001
262,0.3235330879688263,0.39576029777526855,0.99,0.93,0.001
263,0.3235153257846832,0.39562392234802246,0.99,0.93,0.001
264,0.3235129415988922,0.39529937505722046,0.99,0.93,0.001
265,0.3235183656215668,0.3947993516921997,0.99,0.93,0.001
266,0.32352009415626526,0.39460697770118713,0.99,0.93,0.001
267,0.3235342800617218,0.3947280943393707,0.99,0.93,0.001
268,0.3235393166542053,0.3947888910770416,0.99,0.93,0.001
269,0.3235599994659424,0.39483243227005005,0.99,0.93,0.001
270,0.323520302772522,0.3945953845977783,0.99,0.93,0.001
271,0.3235176205635071,0.3945131301879883,0.99,0.93,0.001
272,0.32352301478385925,0.3941981792449951,0.99,0.93,0.001
273,0.32352587580680847,0.39409443736076355,0.99,0.93,0.001
274,0.3235261142253876,0.3942970931529999,0.99,0.93,0.001
275,0.32350650429725647,0.3944844901561737,0.99,0.93,0.001
276,0.3235267698764801,0.3952387869358063,0.99,0.93,0.001
277,0.3235156238079071,0.3949778079986572,0.99,0.93,0.001
278,0.3235279321670532,0.39498794078826904,0.99,0.93,0.001
279,0.323481947183609,0.39488765597343445,0.99,0.93,0.001
280,0.3234807848930359,0.3949282467365265,0.99,0.93,0.001
281,0.3234938383102417,0.39493033289909363,0.99,0.93,0.001
282,0.32352107763290405,0.3952580988407135,0.99,0.93,0.001
283,0.3234773576259613,0.3955218195915222,0.99,0.93,0.001
284,0.3235360085964203,0.39589226245880127,0.99,0.93,0.001
285,0.3234962522983551,0.3955495357513428,0.99,0.93,0.001
286,0.3234889507293701,0.3950026035308838,0.99,0.93,0.001
287,0.3234795033931732,0.39462810754776,0.99,0.93,0.001
288,0.323500394821167,0.3944866955280304,0.99,0.93,0.001
289,0.3235042095184326,0.3942141830921173,0.99,0.93,0.001
290,0.32348617911338806,0.3940102756023407,0.99,0.93,0.001
291,0.32346469163894653,0.39431872963905334,0.99,0.93,0.001
292,0.32350796461105347,0.39465558528900146,0.99,0.93,0.001
293,0.3234710991382599,0.3945450484752655,0.99,0.93,0.001
294,0.32347816228866577,0.39445045590400696,0.99,0.93,0.001
295,0.32350432872772217,0.3942638635635376,0.99,0.93,0.001
296,0.3234714865684509,0.39422425627708435,0.99,0.93,0.001
297,0.32348397374153137,0.3941647708415985,0.99,0.93,0.001
298,0.32347819209098816,0.3946160078048706,0.99,0.93,0.001
299,0.3234550952911377,0.3952557444572449,0.99,0.93,0.001
300,0.3235183656215668,0.3958655297756195,0.99,0.93,0.001
301,0.3235156238079071,0.39651381969451904,0.99,0.93,0.001
302,0.3234589099884033,0.3965696096420288,0.99,0.93,0.001
303,0.32348424196243286,0.39607036113739014,0.99,0.93,0.001
304,0.3234865963459015,0.39533257484436035,0.99,0.93,0.001
305,0.32350701093673706,0.39443859457969666,0.99,0.93,0.001
306,0.3234720230102539,0.39410996437072754,0.99,0.93,0.001
307,0.3234950304031372,0.3938508629798889,0.99,0.93,0.001
308,0.3234575688838959,0.3938632309436798,0.99,0.93,0.001
309,0.32346394658088684,0.3940443694591522,0.99,0.93,0.001
310,0.32346251606941223,0.39482125639915466,0.99,0.93,0.001
311,0.32348212599754333,0.3958202004432678,0.99,0.93,0.001
312,0.3234875500202179,0.3968602120876312,0.99,0.93,0.001
313,0.32345592975616455,0.39670848846435547,0.99,0.93,0.001
314,0.3234672546386719,0.39632120728492737,0.99,0.93,0.001
315,0.3234717845916748,0.39613938331604004,0.99,0.93,0.001
316,0.32347267866134644,0.39553627371788025,0.99,0.93,0.001
317,0.32345694303512573,0.3953312933444977,0.99,0.93,0.001
318,0.32344695925712585,0.39498916268348694,0.99,0.93,0.001
319,0.3234511911869049,0.39483582973480225,0.99,0.93,0.001
320,0.3234405219554901,0.39497852325439453,0.99,0.93,0.001
321,0.32345032691955566,0.39504432678222656,0.99,0.93,0.001
322,0.3234635591506958,0.395325630903244,0.99,0.93,0.001
323,0.32344943284988403,0.3952139914035797,0.99,0.93,0.001
324,0.32345911860466003,0.3953617811203003,0.99,0.93,0.001
325,0.32343676686286926,0.3953835368156433,0.99,0.93,0.001
326,0.3234429657459259,0.3956756591796875,0.99,0.93,0.001
327,0.32344603538513184,0.39579781889915466,0.99,0.93,0.001
328,0.3234516978263855,0.39547106623649597,0.99,0.93,0.001
329,0.32345324754714966,0.39515221118927,0.99,0.93,0.001
330,0.3234289586544037,0.3950129747390747,0.99,0.93,0.001
331,0.3234383463859558,0.39469292759895325,0.99,0.93,0.001
332,0.3234409689903259,0.39465972781181335,0.99,0.93,0.001
333,0.32347163558006287,0.394616037607193,0.99,0.93,0.001
334,0.32342642545700073,0.393959641456604,0.99,0.93,0.001
335,0.3234298825263977,0.3937436640262604,0.99,0.93,0.001
336,0.32345640659332275,0.393471360206604,0.99,0.93,0.001
337,0.32342520356178284,0.39359790086746216,0.99,0.93,0.001
338,0.3234400451183319,0.3940236270427704,0.99,0.93,0.001
339,0.323406457901001,0.39463967084884644,0.99,0.93,0.001
340,0.32343247532844543,0.39580050110816956,0.99,0.93,0.001
341,0.32345378398895264,0.39695796370506287,0.99,0.93,0.001
342,0.3234215974807739,0.3973127007484436,0.99,0.93,0.001
343,0.32344189286231995,0.39729762077331543,0.99,0.93,0.001
344,0.32341524958610535,0.3968893885612488,0.99,0.93,0.001
345,0.3234485685825348,0.3963545262813568,0.99,0.93,0.001
346,0.32344532012939453,0.39580467343330383,0.99,0.93,0.001
347,0.3234792947769165,0.39494606852531433,0.99,0.93,0.001
348,0.32342493534088135,0.3942221403121948,0.99,0.92,0.001
349,0.323446661233902,0.3933716118335724,0.99,0.92,0.001
350,0.32343411445617676,0.3931284248828888,0.99,0.92,0.001
351,0.32344040274620056,0.3936660885810852,0.99,0.93,0.001
352,0.32341328263282776,0.39419257640838623,0.99,0.93,0.001
353,0.32342684268951416,0.39502155780792236,0.99,0.93,0.001
354,0.32346823811531067,0.39637279510498047,0.99,0.93,0.001
355,0.3234172463417053,0.39698654413223267,0.99,0.93,0.001
356,0.3234352767467499,0.3975362479686737,0.99,0.93,0.001
357,0.3234187364578247,0.3976394534111023,0.99,0.93,0.001
358,0.32340890169143677,0.3973221480846405,0.99,0.93,0.001
359,0.3234219253063202,0.3964085876941681,0.99,0.93,0.001
360,0.32341182231903076,0.3959425091743469,0.99,0.93,0.001
361,0.32345297932624817,0.3951394557952881,0.99,0.93,0.001
362,0.323414146900177,0.3944447338581085,0.99,0.93,0.001
363,0.3234134912490845,0.3938082456588745,0.99,0.93,0.001
364,0.32342779636383057,0.39393138885498047,0.99,0.92,0.001
365,0.3234367370605469,0.3943988084793091,0.99,0.92,0.001
366,0.3234403729438782,0.3943040072917938,0.99,0.92,0.001
367,0.3234218657016754,0.39416030049324036,0.99,0.93,0.001
368,0.3234090805053711,0.39399608969688416,0.99,0.93,0.001
369,0.32342541217803955,0.3941839635372162,0.99,0.93,0.001
370,0.3234277665615082,0.3944701850414276,0.99,0.93,0.001
371,0.3234619200229645,0.3949463665485382,0.99,0.93,0.001
372,0.32341986894607544,0.3947586119174957,0.99,0.93,0.001
373,0.32340729236602783,0.39490097761154175,0.99,0.93,0.001
374,0.32341858744621277,0.39486390352249146,0.99,0.93,0.001
375,0.32342690229415894,0.3942236006259918,0.99,0.93,0.001
376,0.32340577244758606,0.3943817615509033,0.99,0.93,0.001
377,0.32339873909950256,0.3948609530925751,0.99,0.93,0.001
378,0.3234143853187561,0.39547306299209595,0.99,0.93,0.001
379,0.32341477274894714,0.39602959156036377,0.99,0.93,0.001
380,0.3234037458896637,0.39673787355422974,0.99,0.92,0.001
381,0.3234059512615204,0.39748454093933105,0.99,0.92,0.001
382,0.32344597578048706,0.39756056666374207,0.99,0.92,0.001
383,0.3234001100063324,0.39742061495780945,0.99,0.93,0.001
384,0.32341790199279785,0.3970165252685547,0.99,0.93,0.001
385,0.3234044015407562,0.3967568576335907,0.99,0.93,0.001
386,0.3234040141105652,0.3962028920650482,0.99,0.93,0.001
387,0.32340946793556213,0.39543864130973816,0.99,0.93,0.001
388,0.3234119415283203,0.3945934772491455,0.99,0.93,0.001
389,0.3234108090400696,0.3938141167163849,0.99,0.93,0.001
390,0.32340049743652344,0.3936961889266968,0.99,0.93,0.001
391,0.3234010636806488,0.39380764961242676,0.99,0.93,0.001
392,0.32339683175086975,0.39407527446746826,0.99,0.93,0.001
393,0.323399156332016,0.394697368144989,0.99,0.93,0.001
394,0.32341551780700684,0.39518243074417114,0.99,0.93,0.001
395,0.3233974575996399,0.3958164155483246,0.99,0.93,0.001
396,0.323396772146225,0.3960617780685425,0.99,0.93,0.001
397,0.3234020471572876,0.3962489664554596,0.99,0.93,0.001
398,0.323394775390625,0.3961777985095978,0.99,0.93,0.001
399,0.323396772146225,0.3962854743003845,0.99,0.93,0.001
400,0.323414146900177,0.3962722718715668,0.99,0.93,0.001
401,0.32340869307518005,0.3961429297924042,0.99,0.93,0.001
402,0.32341381907463074,0.395161509513855,0.99,0.93,0.001
403,0.3233838975429535,0.3951256573200226,0.99,0.93,0.001
404,0.3233863413333893,0.39495837688446045,0.99,0.93,0.001
405,0.3233773410320282,0.3948666453361511,0.99,0.93,0.001
406,0.3233817219734192,0.3949755132198334,0.99,0.93,0.001
407,0.3233894407749176,0.3953016996383667,0.99,0.93,0.001
408,0.3233814537525177,0.39564427733421326,0.99,0.93,0.001
409,0.32340577244758606,0.3961504101753235,0.99,0.93,0.001
410,0.32340681552886963,0.39654457569122314,0.99,0.93,0.001
411,0.32338595390319824,0.3964359760284424,0.99,0.93,0.001
412,0.3233814537525177,0.3962060511112213,0.99,0.93,0.001
413,0.32337841391563416,0.3960363268852234,0.99,0.93,0.001
414,0.323391318321228,0.3957314193248749,0.99,0.93,0.001
415,0.3233846426010132,0.39565449953079224,0.99,0.93,0.001
416,0.3233887851238251,0.39539143443107605,0.99,0.93,0.001
417,0.32340773940086365,0.39585742354393005,0.99,0.93,0.001
418,0.32337838411331177,0.3958302438259125,0.99,0.93,0.001
419,0.3233799338340759,0.395870566368103,0.99,0.93,0.001
420,0.32338783144950867,0.3955899477005005,0.99,0.93,0.001
421,0.32337838411331177,0.3953995108604431,0.99,0.93,0.001
422,0.323385089635849,0.395418256521225,0.99,0.93,0.001
423,0.32337328791618347,0.39518773555755615,0.99,0.93,0.001
424,0.32339149713516235,0.39536434412002563,0.99,0.93,0.001
425,0.32337334752082825,0.3955956995487213,0.99,0.93,0.001
426,0.3233666718006134,0.3957023322582245,0.99,0.93,0.001
427,0.32337215542793274,0.39584511518478394,0.99,0.93,0.001
428,0.3233720064163208,0.39622876048088074,0.99,0.93,0.001
429,0.3233700692653656,0.3967105448246002,0.99,0.93,0.001
430,0.323373019695282,0.3972713351249695,0.99,0.93,0.001
431,0.3233705163002014,0.3977080285549164,0.99,0.93,0.001
432,0.3233894109725952,0.39763614535331726,0.99,0.93,0.001
433,0.3233743906021118,0.39729440212249756,0.99,0.93,0.001
434,0.32339999079704285,0.39783304929733276,0.99,0.93,0.001
435,0.3233768343925476,0.3979165554046631,0.99,0.92,0.001
436,0.3233821988105774,0.3974572718143463,0.99,0.92,0.001
437,0.3233695328235626,0.39702561497688293,0.99,0.93,0.001
438,0.3233688771724701,0.39624759554862976,0.99,0.93,0.001
439,0.32335352897644043,0.39608311653137207,0.99,0.93,0.001
440,0.32337486743927,0.3961350619792938,0.99,0.93,0.001
441,0.3233713209629059,0.3956528902053833,0.99,0.93,0.001
442,0.32338324189186096,0.3951662480831146,0.99,0.93,0.001
443,0.3233688473701477,0.39561980962753296,0.99,0.93,0.001
444,0.3233737647533417,0.3961739242076874,0.99,0.93,0.001
445,0.3233712315559387,0.396259605884552,0.99,0.93,0.001
446,0.32336199283599854,0.39654091000556946,0.99,0.93,0.001
447,0.32336217164993286,0.3965156078338623,0.99,0.93,0.001
448,0.32336723804473877,0.3960171937942505,0.99,0.93,0.001
449,0.3233770430088043,0.39620688557624817,0.99,0.93,0.001
450,0.3233720064163208,0.39631539583206177,0.99,0.93,0.001
451,0.3233633041381836,0.3964160680770874,0.99,0.93,0.001
452,0.32335609197616577,0.3964935541152954,0.99,0.93,0.001
453,0.32337334752082825,0.3964737057685852,0.99,0.93,0.001
454,0.3233620822429657,0.3965331017971039,0.99,0.93,0.001
455,0.32336294651031494,0.3963257074356079,0.99,0.93,0.001
456,0.32336845993995667,0.39592987298965454,0.99,0.93,0.001
457,0.3233831822872162,0.39595621824264526,0.99,0.93,0.001
458,0.3233610987663269,0.39589014649391174,0.99,0.93,0.001
459,0.3233960270881653,0.3955800533294678,0.99,0.93,0.001
460,0.3233680725097656,0.39486050605773926,0.99,0.93,0.001
461,0.3233754634857178,0.3948077857494354,0.99,0.93,0.001
462,0.32335788011550903,0.3947988748550415,0.99,0.93,0.001
463,0.323358416557312,0.39470794796943665,0.99,0.93,0.001
464,0.3233588933944702,0.3948485553264618,0.99,0.93,0.001
465,0.3233739733695984,0.39475834369659424,0.99,0.93,0.001
466,0.32335272431373596,0.39477086067199707,0.99,0.93,0.001
467,0.3233482241630554,0.39488738775253296,0.99,0.93,0.001
468,0.3233736455440521,0.3954005539417267,0.99,0.93,0.001
469,0.32336175441741943,0.39605769515037537,0.99,0.93,0.001
470,0.3233581483364105,0.396543949842453,0.99,0.93,0.001
471,0.32336947321891785,0.3969336748123169,0.99,0.93,0.001
472,0.32336217164993286,0.39707064628601074,0.99,0.93,0.001
473,0.3233623504638672,0.39733779430389404,0.99,0.92,0.001
474,0.32336413860321045,0.3972935080528259,0.99,0.92,0.001
475,0.3233475089073181,0.39729735255241394,0.99,0.92,0.001
476,0.3233562409877777,0.39757978916168213,0.99,0.92,0.001
477,0.3233451843261719,0.39774760603904724,0.99,0.92,0.001
478,0.32335516810417175,0.3977178931236267,0.99,0.92,0.001
479,0.3233555555343628,0.3976655602455139,0.99,0.92,0.001
480,0.3233552873134613,0.3973205089569092,0.99,0.92,0.001
481,0.32335376739501953,0.3971717357635498,0.99,0.93,0.001
482,0.32336318492889404,0.3967972695827484,0.99,0.93,0.001
483,0.3233411908149719,0.39644840359687805,0.99,0.93,0.001
484,0.3233741819858551,0.39581868052482605,0.99,0.93,0.001
485,0.32334500551223755,0.39492785930633545,0.99,0.93,0.001
486,0.32334190607070923,0.39471232891082764,0.99,0.93,0.001
487,0.3233531713485718,0.39484745264053345,0.99,0.93,0.001
488,0.32335183024406433,0.39546746015548706,0.99,0.93,0.001
489,0.32334598898887634,0.395962119102478,0.99,0.92,0.001
490,0.323355495929718,0.39620479941368103,0.99,0.93,0.001
491,0.3233700692653656,0.396430104970932,0.99,0.93,0.001
492,0.323349267244339,0.3963868021965027,0.99,0.93,0.001
493,0.32333624362945557,0.39654719829559326,0.99,0.93,0.001
494,0.3233731985092163,0.39703819155693054,0.99,0.93,0.001
495,0.3233468234539032,0.39719802141189575,0.99,0.93,0.001
496,0.32334351539611816,0.39780837297439575,0.99,0.92,0.001
497,0.3233438730239868,0.3979354798793793,0.99,0.92,0.001
498,0.3233494162559509,0.39822396636009216,0.99,0.92,0.001
499,0.3233480751514435,0.3978688418865204,0.99,0.92,0.001
500,0.32333824038505554,0.3980863094329834,0.99,0.93,0.001
501,0.3233427107334137,0.3985714614391327,0.99,0.93,0.001
502,0.32334038615226746,0.39889320731163025,0.99,0.92,0.001
503,0.3233586549758911,0.39930856227874756,0.99,0.93,0.001
504,0.3233630359172821,0.3995600640773773,0.99,0.91,0.001
505,0.3233499526977539,0.3989761471748352,0.99,0.92,0.001
506,0.3233374357223511,0.3983004689216614,0.99,0.92,0.001
507,0.32335278391838074,0.3978622555732727,0.99,0.92,0.001
508,0.32335254549980164,0.39724278450012207,0.99,0.92,0.001
509,0.32334110140800476,0.3967439532279968,0.99,0.93,0.001
510,0.32334885001182556,0.3961533308029175,0.99,0.93,0.001
511,0.3233393132686615,0.39570099115371704,0.99,0.93,0.001
512,0.3233552873134613,0.39522066712379456,0.99,0.93,0.001
513,0.3233569264411926,0.3951737880706787,0.99,0.93,0.001
514,0.32335516810417175,0.39558637142181396,0.99,0.93,0.001
515,0.3233509063720703,0.39613237977027893,0.99,0.93,0.001
516,0.3233293294906616,0.3963089883327484,0.99,0.93,0.001
517,0.32333141565322876,0.3964827358722687,0.99,0.93,0.001
518,0.32335367798805237,0.3968621492385864,0.99,0.92,0.001
519,0.32333511114120483,0.39720550179481506,0.99,0.92,0.001
520,0.32333362102508545,0.3972332775592804,0.99,0.92,0.001
521,0.3233451545238495,0.3970380425453186,0.99,0.93,0.001
522,0.3233436644077301,0.3968839943408966,0.99,0.93,0.001
523,0.3233450651168823,0.39652878046035767,0.99,0.93,0.001
524,0.32333144545555115,0.39648738503456116,0.99,0.93,0.001
525,0.323340505361557,0.3965774178504944,0.99,0.93,0.001
526,0.32333505153656006,0.39663970470428467,0.99,0.93,0.001
527,0.32333314418792725,0.39684978127479553,0.99,0.93,0.001
528,0.32333528995513916,0.39738357067108154,0.99,0.93,0.001
529,0.32334136962890625,0.3976817727088928,0.99,0.93,0.001
530,0.3233332335948944,0.39792418479919434,0.99,0.93,0.001
531,0.323342889547348,0.3981265723705292,0.99,0.93,0.001
532,0.3233341872692108,0.39842960238456726,0.99,0.93,0.001
533,0.3233537971973419,0.3994672894477844,0.99,0.91,0.001
534,0.3233445882797241,0.39990562200546265,0.99,0.91,0.001
535,0.32333433628082275,0.3999228775501251,0.99,0.91,0.001
536,0.32333701848983765,0.39962881803512573,0.99,0.92,0.001
537,0.3233441412448883,0.3991529047489166,0.99,0.91,0.001
538,0.32333242893218994,0.39867985248565674,0.99,0.91,0.001
539,0.32333213090896606,0.3981868028640747,0.99,0.92,0.001
540,0.3233400583267212,0.39784225821495056,0.99,0.93,0.001
541,0.32333147525787354,0.3977125585079193,0.99,0.92,0.001
542,0.3233281373977661,0.397620290517807,0.99,0.92,0.001
543,0.32333362102508545,0.39792442321777344,0.99,0.92,0.001
544,0.32334473729133606,0.3982662260532379,0.99,0.92,0.001
545,0.32333704829216003,0.398159384727478,0.99,0.93,0.001
546,0.3233352601528168,0.3977378010749817,0.99,0.93,0.001
547,0.3233224153518677,0.39765191078186035,0.99,0.93,0.001
548,0.32334133982658386,0.39666056632995605,0.99,0.93,0.001
549,0.3233334422111511,0.3964981138706207,0.99,0.93,0.001
550,0.3233291506767273,0.3965623378753662,0.99,0.93,0.001
551,0.32333430647850037,0.39724403619766235,0.99,0.92,0.001
552,0.3233344256877899,0.3974645137786865,0.99,0.91,0.001
553,0.3233318626880646,0.3976879417896271,0.99,0.91,0.001
554,0.3233291208744049,0.39807644486427307,0.99,0.91,0.001
555,0.32332858443260193,0.39815714955329895,0.99,0.92,0.001
556,0.32332122325897217,0.39835837483406067,0.99,0.93,0.001
557,0.3233318328857422,0.3987775146961212,0.99,0.93,0.001
558,0.32333141565322876,0.39897260069847107,0.99,0.92,0.001
559,0.32332825660705566,0.39954009652137756,0.99,0.92,0.001
560,0.323343962430954,0.3998359739780426,0.99,0.92,0.001
561,0.3233269155025482,0.39999935030937195,0.99,0.91,0.001
562,0.32332777976989746,0.40026527643203735,0.99,0.91,0.001
563,0.3233361840248108,0.40019166469573975,0.99,0.91,0.001
564,0.32331934571266174,0.3996111750602722,0.99,0.91,0.001
565,0.3233289420604706,0.39919033646583557,0.99,0.91,0.001
566,0.3233289420604706,0.39854663610458374,0.99,0.91,0.001
567,0.32332366704940796,0.3982633948326111,0.99,0.92,0.001
568,0.3233337104320526,0.39873096346855164,0.99,0.91,0.001
569,0.32333195209503174,0.39880111813545227,0.99,0.91,0.001
570,0.32332050800323486,0.39849746227264404,0.99,0.91,0.001
571,0.32332488894462585,0.39837753772735596,0.99,0.91,0.001
572,0.32331883907318115,0.39834851026535034,0.99,0.92,0.001
573,0.323326975107193,0.39840632677078247,0.99,0.92,0.001
574,0.32332396507263184,0.3987523913383484,0.99,0.92,0.001
575,0.32333290576934814,0.39952191710472107,0.99,0.91,0.001
576,0.32331523299217224,0.4003751873970032,0.99,0.91,0.001
577,0.3233186602592468,0.400892436504364,0.99,0.91,0.001
578,0.3233206868171692,0.4013693928718567,0.99,0.91,0.001
579,0.3233368396759033,0.4019681513309479,0.99,0.91,0.001
580,0.3233252763748169,0.40231645107269287,0.99,0.91,0.001
581,0.3233189880847931,0.4017695486545563,0.99,0.91,0.001
582,0.3233308494091034,0.4011308252811432,0.99,0.91,0.001
583,0.3233221471309662,0.4007318913936615,0.99,0.91,0.001
584,0.3233175277709961,0.39984583854675293,0.99,0.92,0.001
585,0.32331278920173645,0.3993195593357086,0.99,0.91,0.001
586,0.3233223259449005,0.3986821472644806,0.99,0.91,0.001
587,0.32332131266593933,0.39821627736091614,0.99,0.92,0.001
588,0.32331767678260803,0.39803826808929443,0.99,0.92,0.001
589,0.323324054479599,0.397735595703125,0.99,0.91,0.001
590,0.3233136236667633,0.39735913276672363,0.99,0.91,0.001
591,0.3233250379562378,0.39775359630584717,0.99,0.91,0.001
592,0.32331740856170654,0.39823028445243835,0.99,0.92,0.001
593,0.32331839203834534,0.39883673191070557,0.99,0.91,0.001
594,0.32332324981689453,0.3993776738643646,0.99,0.91,0.0007937005259840996
595,0.3233240842819214,0.39964520931243896,0.99,0.91,0.0007937005259840996
596,0.32331687211990356,0.39970847964286804,0.99,0.91,0.0007937005259840996
597,0.3233208954334259,0.40005257725715637,0.99,0.92,0.0007937005259840996
598,0.323332279920578,0.39943939447402954,0.99,0.91,0.0007937005259840996
599,0.32332050800323486,0.3998262882232666,0.99,0.91,0.0007937005259840996
600,0.3233201503753662,0.40020859241485596,0.99,0.91,0.0007937005259840996
601,0.3233199715614319,0.4005926847457886,0.99,0.91,0.0007937005259840996
602,0.32332316040992737,0.4008729159832001,0.99,0.92,0.0007937005259840996
603,0.32331860065460205,0.4009377360343933,0.99,0.91,0.0007937005259840996
604,0.3233109712600708,0.4009873569011688,0.99,0.91,0.0007937005259840996
605,0.32330894470214844,0.40101921558380127,0.99,0.9,0.0007937005259840996
606,0.3233186602592468,0.4009932577610016,0.99,0.91,0.0007937005259840996
607,0.32332149147987366,0.4008869528770447,0.99,0.91,0.0007937005259840996
608,0.3233129382133484,0.4005722403526306,0.99,0.91,0.0007937005259840996
609,0.32331031560897827,0.4002934396266937,0.99,0.91,0.0007937005259840996
610,0.3233281373977661,0.4002143144607544,0.99,0.91,0.0007937005259840996
611,0.3233087956905365,0.4002675712108612,0.99,0.91,0.0007937005259840996
612,0.3233228623867035,0.3999146521091461,0.99,0.91,0.0007937005259840996
613,0.32330918312072754,0.39998582005500793,0.99,0.91,0.0007937005259840996
614,0.3233272135257721,0.3996523320674896,0.99,0.91,0.0007937005259840996
615,0.3233107030391693,0.39955395460128784,0.99,0.91,0.0007937005259840996
616,0.32331258058547974,0.3992993235588074,0.99,0.92,0.0007937005259840996
617,0.3233138918876648,0.3993091285228729,0.99,0.91,0.0007937005259840996
618,0.32330521941185,0.3995075225830078,0.99,0.91,0.0007937005259840996
619,0.3233143091201782,0.39980602264404297,0.99,0.91,0.0007937005259840996
620,0.32330894470214844,0.4000972509384155,0.99,0.91,0.0007937005259840996
621,0.3233078718185425,0.4006440043449402,0.99,0.91,0.0007937005259840996
622,0.32331934571266174,0.4008425772190094,0.99,0.9,0.0007937005259840996
623,0.32331329584121704,0.4014368951320648,0.99,0.91,0.0007937005259840996
624,0.3233131766319275,0.40177878737449646,0.99,0.91,0.0007937005259840996
625,0.3233208954334259,0.40192481875419617,0.99,0.91,0.0007937005259840996
626,0.32332339882850647,0.40190112590789795,0.99,0.91,0.0007937005259840996
627,0.3233082592487335,0.40147191286087036,0.99,0.91,0.0007937005259840996
628,0.3233112394809723,0.4008103609085083,0.99,0.91,0.0007937005259840996
629,0.3233203589916229,0.40087810158729553,0.99,0.91,0.0007937005259840996
630,0.3233087658882141,0.40126052498817444,0.99,0.91,0.0007937005259840996
631,0.3233112394809723,0.40144413709640503,0.99,0.91,0.0007937005259840996
632,0.3233127295970917,0.40148407220840454,0.99,0.91,0.0007937005259840996
633,0.3233153820037842,0.40149039030075073,0.99,0.91,0.0007937005259840996
634,0.32330894470214844,0.40145182609558105,0.99,0.91,0.0007937005259840996
635,0.32330650091171265,0.4015294015407562,0.99,0.91,0.0007937005259840996
636,0.32331958413124084,0.4012252390384674,0.99,0.91,0.0007937005259840996
637,0.32331791520118713,0.4009917378425598,0.99,0.91,0.0007937005259840996
638,0.3233187794685364,0.4009001851081848,0.99,0.91,0.0007937005259840996
639,0.32330960035324097,0.40093109011650085,0.99,0.91,0.0007937005259840996
640,0.32331711053848267,0.40131351351737976,0.99,0.91,0.0007937005259840996
641,0.3233155906200409,0.4016574025154114,0.99,0.91,0.0007937005259840996
642,0.32331153750419617,0.40188857913017273,0.99,0.91,0.0007937005259840996
643,0.3233145773410797,0.40209904313087463,0.99,0.91,0.0007937005259840996
644,0.3233095407485962,0.40176382660865784,0.99,0.9,0.0007937005259840996
645,0.3233017325401306,0.40151047706604004,0.99,0.91,0.0007937005259840996
646,0.32330483198165894,0.4014570713043213,0.99,0.91,0.0007937005259840996
647,0.3233051300048828,0.40159332752227783,0.99,0.91,0.0007937005259840996
648,0.3233085870742798,0.402048796415329,0.99,0.91,0.0007937005259840996
649,0.3233095407485962,0.4026264250278473,0.99,0.91,0.0007937005259840996
650,0.32330024242401123,0.40310418605804443,0.99,0.9,0.0007937005259840996
651,0.3233104944229126,0.40348130464553833,0.99,0.9,0.0007937005259840996
652,0.3233056664466858,0.4036523401737213,0.99,0.9,0.0007937005259840996
653,0.3233056962490082,0.4035182297229767,0.99,0.91,0.0007937005259840996
654,0.3233056962490082,0.4032702147960663,0.99,0.91,0.0007937005259840996
655,0.3233020305633545,0.4033586084842682,0.99,0.91,0.0007937005259840996
656,0.32331085205078125,0.40348750352859497,0.99,0.91,0.0007937005259840996
657,0.3233014941215515,0.40357720851898193,0.99,0.91,0.0007937005259840996
658,0.32330694794654846,0.40333425998687744,0.99,0.91,0.0007937005259840996
659,0.3233029544353485,0.403076708316803,0.99,0.91,0.0007937005259840996
660,0.32330214977264404,0.4030939042568207,0.99,0.91,0.0007937005259840996
661,0.32330092787742615,0.4032037854194641,0.99,0.91,0.0007937005259840996
662,0.3233100473880768,0.40318334102630615,0.99,0.91,0.0007937005259840996
663,0.3233030438423157,0.4031963646411896,0.99,0.91,0.0007937005259840996
664,0.32330143451690674,0.4030885398387909,0.99,0.91,0.0007937005259840996
665,0.3233044445514679,0.4030855596065521,0.99,0.91,0.0007937005259840996
666,0.3233013451099396,0.4033639132976532,0.99,0.91,0.0007937005259840996
667,0.32330116629600525,0.4035467505455017,0.99,0.91,0.0007937005259840996
668,0.32330456376075745,0.4039664566516876,0.99,0.9,0.0007937005259840996
669,0.3233024477958679,0.40413981676101685,0.99,0.88,0.0007937005259840996
670,0.3233153820037842,0.4038640260696411,0.99,0.88,0.0007937005259840996
671,0.3232980966567993,0.4039905071258545,0.99,0.89,0.0007937005259840996
672,0.32330840826034546,0.4038618206977844,0.99,0.9,0.0007937005259840996
673,0.3233104348182678,0.40333354473114014,0.99,0.91,0.0007937005259840996
674,0.3233010172843933,0.40312889218330383,0.99,0.91,0.0007937005259840996
675,0.32330548763275146,0.40285176038742065,0.99,0.91,0.0007937005259840996
676,0.3233051300048828,0.4024084508419037,0.99,0.91,0.0007937005259840996
677,0.32330483198165894,0.4022287428379059,0.99,0.91,0.0007937005259840996
678,0.32330572605133057,0.4021744132041931,0.99,0.91,0.0007937005259840996
679,0.3233063817024231,0.40308934450149536,0.99,0.91,0.0007937005259840996
680,0.32330963015556335,0.40408623218536377,0.99,0.89,0.0007937005259840996
681,0.32329997420310974,0.40465596318244934,0.99,0.89,0.0007937005259840996
682,0.32329872250556946,0.40507954359054565,0.99,0.89,0.0007937005259840996
683,0.3232996463775635,0.4053482413291931,0.99,0.89,0.0007937005259840996
684,0.32330653071403503,0.4052235782146454,0.99,0.9,0.0007937005259840996
685,0.32329636812210083,0.40509170293807983,0.99,0.9,0.0007937005259840996
686,0.323308527469635,0.40502288937568665,0.99,0.91,0.0007937005259840996
687,0.3233140707015991,0.40493205189704895,0.99,0.91,0.0007937005259840996
688,0.32330358028411865,0.4048733413219452,0.99,0.91,0.0007937005259840996
689,0.32330024242401123,0.405219167470932,0.99,0.89,0.0007937005259840996
690,0.3233056962490082,0.40515026450157166,0.99,0.89,0.0007937005259840996
691,0.32330623269081116,0.4047115445137024,0.99,0.9,0.0007937005259840996
692,0.32330456376075745,0.40397271513938904,0.99,0.91,0.0007937005259840996
693,0.32330048084259033,0.4033437967300415,0.99,0.91,0.0007937005259840996
694,0.3233058452606201,0.40283843874931335,0.99,0.91,0.0007937005259840996
695,0.3232961595058441,0.4033975303173065,0.99,0.91,0.0007937005259840996
696,0.3233015537261963,0.4040863513946533,0.99,0.91,0.0007937005259840996
697,0.3232998251914978,0.40465834736824036,0.99,0.89,0.0007937005259840996
698,0.3233029246330261,0.4049617648124695,0.99,0.9,0.0007937005259840996
699,0.3233080208301544,0.4048629701137543,0.99,0.9,0.0007937005259840996
700,0.32329779863357544,0.4048368036746979,0.99,0.9,0.0007937005259840996
701,0.32330119609832764,0.4050750732421875,0.99,0.9,0.0007937005259840996
702,0.3233024477958679,0.40542811155319214,0.99,0.9,0.0007937005259840996
703,0.3233071267604828,0.4051961600780487,0.99,0.9,0.0007937005259840996
704,0.3232969045639038,0.4049735367298126,0.99,0.91,0.0007937005259840996
705,0.3232993185520172,0.4050116240978241,0.99,0.9,0.0007937005259840996
706,0.32329508662223816,0.40484970808029175,0.99,0.9,0.0007937005259840996
707,0.323297917842865,0.4048817455768585,0.99,0.9,0.0007937005259840996
708,0.323299765586853,0.4046099781990051,0.99,0.9,0.0007937005259840996
709,0.3233105540275574,0.4037776589393616,0.99,0.91,0.0007937005259840996
710,0.3233007788658142,0.4030766785144806,0.99,0.91,0.0007937005259840996
711,0.3232991397380829,0.40284374356269836,0.99,0.91,0.0007937005259840996
712,0.3232952058315277,0.4037332534790039,0.99,0.91,0.0007937005259840996
713,0.3232996463775635,0.4045599102973938,0.99,0.89,0.0007937005259840996
714,0.3233010470867157,0.40491732954978943,0.99,0.88,0.0007937005259840996
715,0.3233133554458618,0.40518349409103394,0.99,0.88,0.0007937005259840996
716,0.3232975900173187,0.4053818881511688,0.99,0.9,0.0007937005259840996
717,0.32329699397087097,0.4056554138660431,0.99,0.9,0.0007937005259840996
718,0.3232961595058441,0.40614238381385803,0.99,0.9,0.0007937005259840996
719,0.3232989013195038,0.40678760409355164,0.99,0.9,0.0007937005259840996
720,0.32329636812210083,0.40748676657676697,0.99,0.89,0.0007937005259840996
721,0.3233010768890381,0.4081663489341736,0.99,0.89,0.0007937005259840996
722,0.3232945203781128,0.4087275266647339,0.99,0.89,0.0007937005259840996
723,0.3233028054237366,0.408614844083786,0.99,0.89,0.0007937005259840996
724,0.3232983648777008,0.40848979353904724,0.99,0.9,0.0007937005259840996
725,0.3233003318309784,0.4075540602207184,0.99,0.9,0.0007937005259840996
726,0.3232954442501068,0.4066442847251892,0.99,0.91,0.0007937005259840996
727,0.323301762342453,0.40653952956199646,0.99,0.9,0.0007937005259840996
728,0.3233034610748291,0.40593674778938293,0.99,0.9,0.0007937005259840996
729,0.3233018219470978,0.4053996801376343,0.99,0.9,0.0007937005259840996
730,0.3232978582382202,0.4045620858669281,0.99,0.91,0.0007937005259840996
731,0.3233047425746918,0.4037219285964966,0.99,0.91,0.0007937005259840996
732,0.32329490780830383,0.4033794403076172,0.99,0.91,0.0007937005259840996
733,0.32329434156417847,0.4032215476036072,0.99,0.91,0.0007937005259840996
734,0.32329773902893066,0.40298840403556824,0.99,0.91,0.0007937005259840996
735,0.32329419255256653,0.4030432403087616,0.99,0.91,0.0007937005259840996
736,0.32330262660980225,0.40428730845451355,0.99,0.89,0.0007937005259840996
737,0.32329297065734863,0.40507081151008606,0.99,0.89,0.0007937005259840996
738,0.3232944905757904,0.4055911600589752,0.99,0.88,0.0007937005259840996
739,0.32330572605133057,0.40555763244628906,0.99,0.9,0.0007937005259840996
740,0.3232951760292053,0.40564480423927307,0.99,0.9,0.0007937005259840996
741,0.3232952952384949,0.4059109389781952,0.99,0.9,0.0007937005259840996
742,0.3232945203781128,0.40621262788772583,0.99,0.9,0.0007937005259840996
743,0.32329609990119934,0.4067806601524353,0.99,0.9,0.0007937005259840996
744,0.32330185174942017,0.4070049524307251,0.99,0.9,0.0007937005259840996
745,0.3232959806919098,0.4073067903518677,0.99,0.9,0.0007937005259840996
746,0.3233150243759155,0.4043841063976288,0.99,0.91,0.0006299605249474364
747,0.3233002722263336,0.40202969312667847,0.99,0.91,0.0006299605249474364
748,0.32332369685173035,0.40435120463371277,0.99,0.91,0.0006299605249474364
749,0.32329636812210083,0.4064834713935852,0.99,0.89,0.0006299605249474364
750,0.3232974112033844,0.4070681035518646,0.99,0.89,0.0006299605249474364
751,0.32331791520118713,0.40685543417930603,0.99,0.89,0.0006299605249474364
752,0.3233071565628052,0.4063413143157959,0.99,0.89,0.0006299605249474364
753,0.32330024242401123,0.40527188777923584,0.99,0.91,0.0006299605249474364
754,0.3232976198196411,0.4043770730495453,0.99,0.91,0.0006299605249474364
755,0.32330283522605896,0.4041660726070404,0.99,0.9,0.0006299605249474364
756,0.32330578565597534,0.40511009097099304,0.99,0.91,0.0006299605249474364
757,0.3232991695404053,0.4061562418937683,0.99,0.9,0.0006299605249474364
758,0.32329800724983215,0.4070359766483307,0.99,0.9,0.0006299605249474364
759,0.3233000934123993,0.40742167830467224,0.99,0.89,0.0006299605249474364
760,0.3233078122138977,0.4072670638561249,0.99,0.9,0.0006299605249474364
761,0.3232981860637665,0.406757116317749,0.99,0.9,0.0006299605249474364
762,0.32329413294792175,0.40601208806037903,0.99,0.9,0.0006299605249474364
763,0.323293536901474,0.4053935110569,0.99,0.91,0.0006299605249474364
764,0.32329726219177246,0.4049203395843506,0.99,0.91,0.0006299605249474364
765,0.32329466938972473,0.4047597050666809,0.99,0.91,0.0006299605249474364
766,0.32329508662223816,0.4050379693508148,0.99,0.91,0.0006299605249474364
767,0.32329991459846497,0.4050830006599426,0.99,0.9,0.0006299605249474364
768,0.3233019709587097,0.40484049916267395,0.99,0.9,0.0006299605249474364
769,0.32329481840133667,0.40466418862342834,0.99,0.91,0.0006299605249474364
770,0.32329055666923523,0.4048730432987213,0.99,0.9,0.0006299605249474364
771,0.3232932686805725,0.4052758514881134,0.99,0.9,0.0006299605249474364
772,0.3232940435409546,0.4058080017566681,0.99,0.89,0.0006299605249474364
773,0.32329341769218445,0.40654700994491577,0.99,0.89,0.0006299605249474364
774,0.3232949376106262,0.4070225656032562,0.99,0.89,0.0006299605249474364
775,0.323294460773468,0.40767741203308105,0.99,0.89,0.0006299605249474364
776,0.32329344749450684,0.4083348512649536,0.99,0.9,0.0006299605249474364
777,0.32329273223876953,0.40867727994918823,0.99,0.9,0.0006299605249474364
778,0.32329314947128296,0.40926119685173035,0.99,0.9,0.0006299605249474364
779,0.3232967257499695,0.4094930589199066,0.99,0.9,0.0006299605249474364
780,0.3232942521572113,0.40975356101989746,0.99,0.9,0.0006299605249474364
781,0.32328999042510986,0.41002899408340454,0.99,0.9,0.0006299605249474364
782,0.32329174876213074,0.41007405519485474,0.99,0.9,0.0006299605249474364
783,0.32329505681991577,0.4100355803966522,0.99,0.9,0.0006299605249474364
784,0.323293000459671,0.40988701581954956,0.99,0.9,0.0006299605249474364
785,0.3232939541339874,0.4098021388053894,0.99,0.9,0.0006299605249474364
786,0.32329753041267395,0.4089451730251312,0.99,0.9,0.0006299605249474364
787,0.32329413294792175,0.40802037715911865,0.99,0.9,0.0006299605249474364
788,0.3232960104942322,0.40744662284851074,0.99,0.9,0.0006299605249474364
789,0.32328930497169495,0.4076839089393616,0.99,0.9,0.0006299605249474364
790,0.3232923448085785,0.4081149995326996,0.99,0.9,0.0006299605249474364
791,0.3232932686805725,0.4086036682128906,0.99,0.89,0.0006299605249474364
792,0.3232928216457367,0.4086865484714508,0.99,0.89,0.0006299605249474364
793,0.3232920467853546,0.4083133935928345,0.99,0.9,0.0006299605249474364
794,0.3232932984828949,0.4078443944454193,0.99,0.9,0.0006299605249474364
795,0.32329410314559937,0.40749940276145935,0.99,0.9,0.0006299605249474364
796,0.3232905864715576,0.4072263836860657,0.99,0.91,0.0006299605249474364
797,0.3232911229133606,0.407495379447937,0.99,0.91,0.0006299605249474364
798,0.32329440116882324,0.40881896018981934,0.99,0.9,0.0006299605249474364
799,0.3232964277267456,0.4099245071411133,0.99,0.9,0.0006299605249474364
800,0.32329291105270386,0.4106724262237549,0.99,0.88,0.0006299605249474364
801,0.3232947885990143,0.41080430150032043,0.99,0.88,0.0006299605249474364
802,0.3232899606227875,0.4108541011810303,0.99,0.88,0.0006299605249474364
803,0.3232923448085785,0.41075584292411804,0.99,0.89,0.0006299605249474364
804,0.32328835129737854,0.4103676974773407,0.99,0.9,0.0006299605249474364
805,0.3232898414134979,0.4101170003414154,0.99,0.9,0.0006299605249474364
806,0.3232918679714203,0.4097328186035156,0.99,0.9,0.0006299605249474364
807,0.32329684495925903,0.4093283414840698,0.99,0.9,0.0006299605249474364
808,0.32329514622688293,0.4089694917201996,0.99,0.9,0.0006299605249474364
809,0.3232920467853546,0.409005343914032,0.99,0.9,0.0006299605249474364
810,0.32329127192497253,0.40919792652130127,0.99,0.9,0.0006299605249474364
811,0.32329559326171875,0.4090743660926819,0.99,0.9,0.0006299605249474364
812,0.3232911229133606,0.40914905071258545,0.99,0.9,0.0006299605249474364
813,0.32329079508781433,0.4093298017978668,0.99,0.9,0.0006299605249474364
814,0.3232889473438263,0.40934261679649353,0.99,0.9,0.0006299605249474364
815,0.3233012855052948,0.408004492521286,0.99,0.9,0.0006299605249474364
816,0.32329046726226807,0.4071521759033203,0.99,0.91,0.0006299605249474364
817,0.3232923746109009,0.40704265236854553,0.99,0.91,0.0006299605249474364
818,0.32329514622688293,0.4079306721687317,0.99,0.9,0.0006299605249474364
819,0.323293536901474,0.4090600609779358,0.99,0.9,0.0006299605249474364
820,0.32328933477401733,0.41015157103538513,0.99,0.89,0.0006299605249474364
821,0.3233206868171692,0.40633586049079895,0.99,0.9,0.0006299605249474364
822,0.32329636812210083,0.4019603431224823,0.99,0.9,0.0006299605249474364
823,0.32331207394599915,0.4012813866138458,0.99,0.9,0.0006299605249474364
824,0.32340726256370544,0.40792641043663025,0.99,0.89,0.0006299605249474364
825,0.3233816623687744,0.3988434970378876,0.99,0.93,0.0006299605249474364
826,0.32357701659202576,0.3941279947757721,0.99,0.93,0.0006299605249474364
827,0.32352641224861145,0.3918319046497345,0.99,0.92,0.0006299605249474364
828,0.3234574496746063,0.3919283151626587,0.99,0.92,0.0006299605249474364
829,0.32353731989860535,0.39314892888069153,0.99,0.92,0.0006299605249474364
830,0.3235228359699249,0.3935839533805847,0.99,0.93,0.0006299605249474364
831,0.32343757152557373,0.3937126398086548,0.99,0.93,0.0006299605249474364
832,0.3234853744506836,0.3947521448135376,0.99,0.92,0.0006299605249474364
833,0.3234376013278961,0.39480113983154297,0.99,0.92,0.0006299605249474364
834,0.3233901560306549,0.3946034610271454,0.99,0.92,0.0006299605249474364
835,0.3233737051486969,0.39564353227615356,0.99,0.92,0.0006299605249474364
836,0.32338130474090576,0.39744749665260315,0.99,0.92,0.0006299605249474364
837,0.3234017491340637,0.39827874302864075,0.99,0.91,0.0006299605249474364
838,0.3233863115310669,0.3975468873977661,0.99,0.92,0.0006299605249474364
839,0.3233536183834076,0.3965027928352356,0.99,0.92,0.0006299605249474364
840,0.32335174083709717,0.3958158493041992,0.99,0.92,0.0006299605249474364
841,0.3233437240123749,0.39549723267555237,0.99,0.92,0.0006299605249474364
842,0.3233450651168823,0.39562079310417175,0.99,0.92,0.0006299605249474364
843,0.32336390018463135,0.3959277868270874,0.99,0.92,0.0006299605249474364
844,0.3233616352081299,0.39589619636535645,0.99,0.92,0.0006299605249474364
845,0.32334190607070923,0.39623209834098816,0.99,0.92,0.0006299605249474364
846,0.32332244515419006,0.3969542384147644,0.99,0.92,0.0006299605249474364
847,0.32332369685173035,0.39805012941360474,0.99,0.91,0.0004999999999999997
848,0.3233213424682617,0.39938366413116455,0.99,0.91,0.0004999999999999997
849,0.3233341872692108,0.40040358901023865,0.99,0.91,0.0004999999999999997
850,0.3233291208744049,0.4009109139442444,0.99,0.91,0.0004999999999999997
851,0.32332339882850647,0.40107592940330505,0.99,0.91,0.0004999999999999997
852,0.32332348823547363,0.4009763300418854,0.99,0.91,0.0004999999999999997
853,0.32331523299217224,0.400905042886734,0.99,0.91,0.0004999999999999997
854,0.3233134150505066,0.400802344083786,0.99,0.91,0.0004999999999999997
855,0.3233150243759155,0.40074482560157776,0.99,0.91,0.0004999999999999997
856,0.3233194053173065,0.40077513456344604,0.99,0.91,0.0004999999999999997
857,0.3233083486557007,0.40099895000457764,0.99,0.9,0.0004999999999999997
858,0.32331329584121704,0.4011494517326355,0.99,0.9,0.0004999999999999997
859,0.32331791520118713,0.40119877457618713,0.99,0.9,0.0004999999999999997
860,0.3233085572719574,0.40124624967575073,0.99,0.91,0.0004999999999999997
861,0.32331642508506775,0.40120476484298706,0.99,0.92,0.0004999999999999997
862,0.3233073949813843,0.4008621871471405,0.99,0.92,0.0004999999999999997
863,0.32330673933029175,0.40056443214416504,0.99,0.92,0.0004999999999999997
864,0.3233168125152588,0.4000508487224579,0.99,0.92,0.0004999999999999997
865,0.32330283522605896,0.39967164397239685,0.99,0.92,0.0004999999999999997
866,0.32330021262168884,0.3992491066455841,0.99,0.91,0.0004999999999999997
867,0.32329872250556946,0.39898884296417236,0.99,0.92,0.0004999999999999997
868,0.3233003616333008,0.3987918198108673,0.99,0.92,0.0004999999999999997
869,0.3233022391796112,0.39855891466140747,0.99,0.92,0.0004999999999999997
870,0.3233049511909485,0.39848268032073975,0.99,0.92,0.0004999999999999997
871,0.32329922914505005,0.3985501527786255,0.99,0.92,0.0004999999999999997
872,0.3233036398887634,0.39870333671569824,0.99,0.92,0.0004999999999999997
873,0.32330408692359924,0.3989337980747223,0.99,0.92,0.0004999999999999997
874,0.3233001232147217,0.3992518186569214,0.99,0.92,0.0004999999999999997
875,0.3233034610748291,0.3996102511882782,0.99,0.92,0.0004999999999999997
876,0.3232981860637665,0.4000873863697052,0.99,0.91,0.0004999999999999997
877,0.3233005404472351,0.40039917826652527,0.99,0.9,0.0004999999999999997
878,0.32330256700515747,0.40063655376434326,0.99,0.9,0.0004999999999999997
879,0.3232981860637665,0.4009873569011688,0.99,0.9,0.0004999999999999997
880,0.3232997953891754,0.40109947323799133,0.99,0.9,0.0004999999999999997
881,0.32330334186553955,0.4012998342514038,0.99,0.9,0.0004999999999999997
882,0.3232990503311157,0.40152737498283386,0.99,0.9,0.0004999999999999997
883,0.32329392433166504,0.4017091393470764,0.99,0.9,0.0004999999999999997
884,0.32330140471458435,0.40187376737594604,0.99,0.9,0.0004999999999999997
885,0.32330018281936646,0.4019889831542969,0.99,0.9,0.0004999999999999997
886,0.32329902052879333,0.4020874798297882,0.99,0.9,0.0004999999999999997
887,0.32329753041267395,0.4023519456386566,0.99,0.9,0.0004999999999999997
888,0.3233035206794739,0.40246376395225525,0.99,0.9,0.0004999999999999997
889,0.32330745458602905,0.40240398049354553,0.99,0.9,0.0004999999999999997
890,0.3233029544353485,0.40235432982444763,0.99,0.9,0.0004999999999999997
891,0.3232937157154083,0.4022989273071289,0.99,0.9,0.0004999999999999997
892,0.3233031928539276,0.4022386968135834,0.99,0.9,0.0004999999999999997
893,0.32329055666923523,0.4021832346916199,0.99,0.9,0.0004999999999999997
894,0.3233010470867157,0.4021967351436615,0.99,0.9,0.0004999999999999997
895,0.32329317927360535,0.4022035300731659,0.99,0.9,0.0004999999999999997
896,0.3233049511909485,0.402232825756073,0.99,0.9,0.0004999999999999997
897,0.3232925832271576,0.4022623300552368,0.99,0.9,0.0004999999999999997
898,0.32329028844833374,0.40244901180267334,0.99,0.9,0.0004999999999999997
899,0.32329121232032776,0.40255627036094666,0.99,0.9,0.0004999999999999997
900,0.32330113649368286,0.4027780592441559,0.99,0.9,0.0004999999999999997
901,0.32329949736595154,0.4028990864753723,0.99,0.9,0.0004999999999999997
902,0.3232991695404053,0.40300795435905457,0.99,0.9,0.0004999999999999997
903,0.3232961595058441,0.4030674695968628,0.99,0.9,0.0004999999999999997
904,0.32329899072647095,0.40325623750686646,0.99,0.9,0.0004999999999999997
905,0.3232984244823456,0.4031645655632019,0.99,0.9,0.0004999999999999997
906,0.3232991397380829,0.40312182903289795,0.99,0.9,0.0004999999999999997
907,0.32329654693603516,0.4030369818210602,0.99,0.9,0.0004999999999999997
908,0.3232980966567993,0.4031134843826294,0.99,0.9,0.0004999999999999997
909,0.3232962489128113,0.403145968914032,0.99,0.9,0.0004999999999999997
910,0.3232984244823456,0.4031303822994232,0.99,0.9,0.0004999999999999997
911,0.32330119609832764,0.40299904346466064,0.99,0.9,0.0004999999999999997
912,0.3232911229133606,0.4030843675136566,0.99,0.9,0.0004999999999999997
913,0.32329949736595154,0.4031558334827423,0.99,0.9,0.0004999999999999997
914,0.3232976794242859,0.40332522988319397,0.99,0.9,0.0004999999999999997
915,0.32329481840133667,0.4034249186515808,0.99,0.9,0.0004999999999999997
916,0.32329708337783813,0.40340787172317505,0.99,0.9,0.0004999999999999997
917,0.3232992887496948,0.40335360169410706,0.99,0.9,0.0004999999999999997
918,0.32329151034355164,0.40318024158477783,0.99,0.9,0.0004999999999999997
919,0.32329168915748596,0.40318211913108826,0.99,0.9,0.0004999999999999997
920,0.32329463958740234,0.4030703604221344,0.99,0.9,0.0004999999999999997
921,0.3232898712158203,0.4030267596244812,0.99,0.9,0.0004999999999999997
922,0.3232979476451874,0.40290313959121704,0.99,0.9,0.0004999999999999997
923,0.32330167293548584,0.40284961462020874,0.99,0.9,0.0004999999999999997
924,0.323297917842865,0.402705579996109,0.99,0.9,0.0004999999999999997
925,0.3232921361923218,0.4025433361530304,0.99,0.9,0.0004999999999999997
926,0.32329368591308594,0.4023464620113373,0.99,0.9,0.0004999999999999997
927,0.32329830527305603,0.4021490812301636,0.99,0.9,0.0004999999999999997
928,0.3232908546924591,0.40217334032058716,0.99,0.9,0.0004999999999999997
929,0.32329505681991577,0.40214595198631287,0.99,0.9,0.0004999999999999997
930,0.3232913613319397,0.4021521508693695,0.99,0.9,0.0004999999999999997
931,0.32329586148262024,0.402370423078537,0.99,0.9,0.0004999999999999997
932,0.32328739762306213,0.40245625376701355,0.99,0.9,0.0004999999999999997
933,0.3232966959476471,0.4026290774345398,0.99,0.9,0.0004999999999999997
934,0.32329779863357544,0.4028452932834625,0.99,0.9,0.0004999999999999997
935,0.32329583168029785,0.40294569730758667,0.99,0.9,0.0004999999999999997
936,0.3232957124710083,0.4031001031398773,0.99,0.9,0.0004999999999999997
937,0.3232920467853546,0.40333423018455505,0.99,0.9,0.0004999999999999997
938,0.3232952952384949,0.40349671244621277,0.99,0.9,0.0004999999999999997
939,0.323293536901474,0.4037690758705139,0.99,0.9,0.0004999999999999997
940,0.3232921361923218,0.40401536226272583,0.99,0.9,0.0004999999999999997
941,0.3232983648777008,0.4041591286659241,0.99,0.9,0.0004999999999999997
942,0.32328978180885315,0.40430325269699097,0.99,0.9,0.0004999999999999997
943,0.32329410314559937,0.40448859333992004,0.99,0.9,0.0004999999999999997
944,0.3232980966567993,0.4045652449131012,0.99,0.9,0.0004999999999999997
945,0.3232984244823456,0.4045582711696625,0.99,0.9,0.0004999999999999997
946,0.32329174876213074,0.4043019115924835,0.99,0.9,0.0004999999999999997
947,0.32329750061035156,0.40427714586257935,0.99,0.9,0.0004999999999999997
948,0.32329419255256653,0.4042971134185791,0.99,0.9,0.00039685026299204955
949,0.3232969641685486,0.4042075276374817,0.99,0.9,0.00039685026299204955
950,0.3232947289943695,0.40400829911231995,0.99,0.9,0.00039685026299204955
951,0.3232986330986023,0.4039580225944519,0.99,0.9,0.00039685026299204955
952,0.32328715920448303,0.403891921043396,0.99,0.9,0.00039685026299204955
953,0.32329368591308594,0.40389564633369446,0.99,0.9,0.00039685026299204955
954,0.32329261302948,0.40388989448547363,0.99,0.9,0.00039685026299204955
955,0.32329297065734863,0.4038867950439453,0.99,0.9,0.00039685026299204955
956,0.3232898712158203,0.4040808379650116,0.99,0.9,0.00039685026299204955
957,0.32328957319259644,0.4042207598686218,0.99,0.9,0.00039685026299204955
958,0.3232932984828949,0.40429118275642395,0.99,0.9,0.00039685026299204955
959,0.3232938051223755,0.404502272605896,0.99,0.9,0.00039685026299204955
960,0.32328879833221436,0.40477442741394043,0.99,0.9,0.00039685026299204955
961,0.3232888877391815,0.40500277280807495,0.99,0.9,0.00039685026299204955
962,0.32329195737838745,0.4052313566207886,0.99,0.9,0.00039685026299204955
963,0.3232899606227875,0.40546759963035583,0.99,0.9,0.00039685026299204955
964,0.323299765586853,0.40561869740486145,0.99,0.9,0.00039685026299204955
965,0.32329246401786804,0.40567508339881897,0.99,0.9,0.00039685026299204955
966,0.3232896327972412,0.4057709872722626,0.99,0.9,0.00039685026299204955
967,0.3232916593551636,0.4055721163749695,0.99,0.9,0.00039685026299204955
968,0.3232881426811218,0.4056139886379242,0.99,0.9,0.00039685026299204955
969,0.32329317927360535,0.40552109479904175,0.99,0.9,0.00039685026299204955
970,0.32329025864601135,0.4055139422416687,0.99,0.9,0.00039685026299204955
971,0.32329079508781433,0.4054674506187439,0.99,0.9,0.00039685026299204955
972,0.32329124212265015,0.40548714995384216,0.99,0.9,0.00039685026299204955
973,0.32329219579696655,0.4053596258163452,0.99,0.9,0.00039685026299204955
974,0.32329124212265015,0.4052545428276062,0.99,0.9,0.00039685026299204955
975,0.32329991459846497,0.40537071228027344,0.99,0.9,0.00039685026299204955
976,0.3232898712158203,0.40546685457229614,0.99,0.9,0.00039685026299204955
977,0.323294460773468,0.4054032266139984,0.99,0.9,0.00039685026299204955
978,0.3232967257499695,0.4052050709724426,0.99,0.9,0.00039685026299204955
979,0.3232906460762024,0.4051600992679596,0.99,0.9,0.00039685026299204955
980,0.3232904374599457,0.4052148759365082,0.99,0.9,0.00039685026299204955
981,0.3232910931110382,0.4053088426589966,0.99,0.9,0.00039685026299204955
982,0.3232913911342621,0.405282586812973,0.99,0.9,0.00039685026299204955
983,0.3232872784137726,0.4053904712200165,0.99,0.9,0.00039685026299204955
984,0.32329654693603516,0.4055171310901642,0.99,0.9,0.00039685026299204955
985,0.32329052686691284,0.40558406710624695,0.99,0.9,0.00039685026299204955
986,0.3232916593551636,0.4055536389350891,0.99,0.9,0.00039685026299204955
987,0.323289155960083,0.40559759736061096,0.99,0.9,0.00039685026299204955
988,0.323293000459671,0.4055863320827484,0.99,0.9,0.00039685026299204955
989,0.3232858180999756,0.4056064188480377,0.99,0.9,0.00039685026299204955
990,0.3232949376106262,0.4055289328098297,0.99,0.9,0.00039685026299204955
991,0.32329317927360535,0.4056028425693512,0.99,0.9,0.00039685026299204955
992,0.3232882022857666,0.40548786520957947,0.99,0.9,0.00039685026299204955
993,0.3232884705066681,0.40547752380371094,0.99,0.9,0.00039685026299204955
994,0.3232928514480591,0.40546897053718567,0.99,0.9,0.00039685026299204955
995,0.3232938349246979,0.40537089109420776,0.99,0.9,0.00039685026299204955
996,0.32329636812210083,0.40525195002555847,0.99,0.91,0.00039685026299204955
997,0.32330337166786194,0.4049912989139557,0.99,0.91,0.00039685026299204955
998,0.32328933477401733,0.4047527611255646,0.99,0.9,0.00039685026299204955
999,0.3232908248901367,0.40448370575904846,0.99,0.9,0.00039685026299204955
1000,0.3232922852039337,0.4044066369533539,0.99,0.9,0.00039685026299204955
1001,0.32329368591308594,0.4041880667209625,0.99,0.9,0.00039685026299204955
1002,0.32328879833221436,0.4040795862674713,0.99,0.9,0.00039685026299204955
1003,0.32329410314559937,0.40395087003707886,0.99,0.9,0.00039685026299204955
1004,0.32328593730926514,0.40379658341407776,0.99,0.9,0.00039685026299204955
1005,0.3232971429824829,0.4037289023399353,0.99,0.9,0.00039685026299204955
1006,0.3232876658439636,0.40394607186317444,0.99,0.9,0.00039685026299204955
1007,0.32328933477401733,0.4040732979774475,0.99,0.9,0.00039685026299204955
1008,0.32328957319259644,0.4042246639728546,0.99,0.9,0.00039685026299204955
1009,0.32329174876213074,0.40432238578796387,0.99,0.9,0.00039685026299204955
1010,0.32329314947128296,0.40454933047294617,0.99,0.9,0.00039685026299204955
1011,0.3232913613319397,0.4046647548675537,0.99,0.9,0.00039685026299204955
1012,0.32328882813453674,0.40494444966316223,0.99,0.9,0.00039685026299204955
1013,0.32329052686691284,0.4051508605480194,0.99,0.9,0.00039685026299204955
1014,0.3232898414134979,0.40534546971321106,0.99,0.9,0.00039685026299204955
1015,0.32329046726226807,0.4055830240249634,0.99,0.9,0.00039685026299204955
1016,0.3232901096343994,0.40579691529273987,0.99,0.9,0.00039685026299204955
1017,0.3232905864715576,0.405905157327652,0.99,0.9,0.00039685026299204955
1018,0.3232905864715576,0.40607768297195435,0.99,0.9,0.00039685026299204955
1019,0.3232954144477844,0.4061175286769867,0.99,0.9,0.00039685026299204955
1020,0.32328978180885315,0.4060971736907959,0.99,0.9,0.00039685026299204955
1021,0.3232905864715576,0.4058859944343567,0.99,0.91,0.00039685026299204955
1022,0.32329311966896057,0.40585440397262573,0.99,0.91,0.00039685026299204955
1023,0.32329222559928894,0.40586185455322266,0.99,0.9,0.00039685026299204955
1024,0.32328665256500244,0.40586939454078674,0.99,0.9,0.00039685026299204955
1025,0.32328835129737854,0.4059678912162781,0.99,0.9,0.00039685026299204955
1026,0.32328957319259644,0.40599629282951355,0.99,0.9,0.00039685026299204955
1027,0.3232925832271576,0.40610209107398987,0.99,0.9,0.00039685026299204955
1028,0.3232923746109009,0.4060426354408264,0.99,0.9,0.00039685026299204955
1029,0.32329055666923523,0.40601393580436707,0.99,0.9,0.00039685026299204955
1030,0.32328957319259644,0.40601426362991333,0.99,0.9,0.00039685026299204955
1031,0.32328876852989197,0.40615448355674744,0.99,0.9,0.00039685026299204955
1032,0.3232909142971039,0.4062381982803345,0.99,0.9,0.00039685026299204955
1033,0.3232852518558502,0.40630561113357544,0.99,0.9,0.00039685026299204955
1034,0.32329535484313965,0.4063228964805603,0.99,0.9,0.00039685026299204955
1035,0.32329121232032776,0.40651848912239075,0.99,0.9,0.00039685026299204955
1036,0.32328909635543823,0.40630459785461426,0.99,0.9,0.00039685026299204955
1037,0.3232892155647278,0.40626347064971924,0.99,0.9,0.00039685026299204955
1038,0.32329079508781433,0.40622755885124207,0.99,0.91,0.00039685026299204955
1039,0.3232911229133606,0.4062633514404297,0.99,0.91,0.00039685026299204955
1040,0.32329124212265015,0.40630608797073364,0.99,0.91,0.00039685026299204955
1041,0.3232952356338501,0.4062695801258087,0.99,0.91,0.00039685026299204955
1042,0.32328808307647705,0.4063284993171692,0.99,0.91,0.00039685026299204955
1043,0.32329002022743225,0.4062192440032959,0.99,0.91,0.00039685026299204955
1044,0.3232875168323517,0.40636155009269714,0.99,0.91,0.00039685026299204955
1045,0.32328903675079346,0.4064338207244873,0.99,0.9,0.00039685026299204955
1046,0.3232884109020233,0.4065687954425812,0.99,0.9,0.00039685026299204955
1047,0.32328587770462036,0.4066774249076843,0.99,0.9,0.00039685026299204955
1048,0.32328757643699646,0.40669214725494385,0.99,0.9,0.00039685026299204955
1049,0.32328906655311584,0.40667733550071716,0.99,0.9,0.00031498026247371797
1050,0.3232864737510681,0.40668949484825134,0.99,0.9,0.00031498026247371797
1051,0.3232879638671875,0.4067531228065491,0.99,0.9,0.00031498026247371797
1052,0.323293000459671,0.4068477749824524,0.99,0.9,0.00031498026247371797
1053,0.3232879638671875,0.4069313108921051,0.99,0.9,0.00031498026247371797
1054,0.32329562306404114,0.4068967401981354,0.99,0.9,0.00031498026247371797
1055,0.32328593730926514,0.4069271981716156,0.99,0.91,0.00031498026247371797
1056,0.3232874274253845,0.4068339467048645,0.99,0.91,0.00031498026247371797
1057,0.3232923746109009,0.406747430562973,0.99,0.91,0.00031498026247371797
1058,0.32328546047210693,0.4066673219203949,0.99,0.91,0.00031498026247371797
1059,0.3232875168323517,0.4065682590007782,0.99,0.9,0.00031498026247371797
1060,0.32328474521636963,0.40662285685539246,0.99,0.9,0.00031498026247371797
1061,0.32328832149505615,0.40668097138404846,0.99,0.9,0.00031498026247371797
1062,0.32328712940216064,0.4067741334438324,0.99,0.9,0.00031498026247371797
1063,0.32329249382019043,0.4066702723503113,0.99,0.9,0.00031498026247371797
1064,0.3232896327972412,0.40667983889579773,0.99,0.9,0.00031498026247371797
1065,0.3232864737510681,0.4067018926143646,0.99,0.9,0.00031498026247371797
1066,0.32328686118125916,0.4067319631576538,0.99,0.9,0.00031498026247371797
1067,0.3232947885990143,0.4068106710910797,0.99,0.9,0.00031498026247371797
1068,0.323294460773468,0.4067760109901428,0.99,0.9,0.00031498026247371797
1069,0.3232887387275696,0.40679657459259033,0.99,0.9,0.00031498026247371797
1070,0.32329052686691284,0.4067581593990326,0.99,0.9,0.00031498026247371797
1071,0.32328709959983826,0.40663570165634155,0.99,0.91,0.00031498026247371797
1072,0.32328882813453674,0.40668636560440063,0.99,0.91,0.00031498026247371797
1073,0.3232980966567993,0.4064861238002777,0.99,0.91,0.00031498026247371797
1074,0.3232865035533905,0.4064862132072449,0.99,0.91,0.00031498026247371797
1075,0.32328784465789795,0.4064802825450897,0.99,0.9,0.00031498026247371797
1076,0.3232871890068054,0.4065187871456146,0.99,0.9,0.00031498026247371797
1077,0.32328909635543823,0.4065990746021271,0.99,0.9,0.00031498026247371797
1078,0.3232888877391815,0.4066784679889679,0.99,0.9,0.00031498026247371797
1079,0.3232874572277069,0.40684232115745544,0.99,0.9,0.00031498026247371797
1080,0.3232855498790741,0.40685132145881653,0.99,0.9,0.00031498026247371797
1081,0.3232872784137726,0.40703001618385315,0.99,0.9,0.00031498026247371797
1082,0.3232862055301666,0.4071964621543884,0.99,0.9,0.00031498026247371797
1083,0.3232916295528412,0.4073387086391449,0.99,0.9,0.00031498026247371797
1084,0.3232852816581726,0.4075030982494354,0.99,0.9,0.00031498026247371797
1085,0.32328540086746216,0.407736599445343,0.99,0.9,0.00031498026247371797
1086,0.3232852816581726,0.40793582797050476,0.99,0.9,0.00031498026247371797
1087,0.32328689098358154,0.40813255310058594,0.99,0.9,0.00031498026247371797
1088,0.32328909635543823,0.4083702862262726,0.99,0.9,0.00031498026247371797
1089,0.3232851028442383,0.4084981679916382,0.99,0.9,0.00031498026247371797
1090,0.3232850730419159,0.40863293409347534,0.99,0.9,0.00031498026247371797
1091,0.32328370213508606,0.4087162911891937,0.99,0.9,0.00031498026247371797
1092,0.3232845366001129,0.4088324308395386,0.99,0.9,0.00031498026247371797
1093,0.3232908546924591,0.4089010953903198,0.99,0.9,0.00031498026247371797
1094,0.3232879638671875,0.4088030755519867,0.99,0.9,0.00031498026247371797
1095,0.32328614592552185,0.40874725580215454,0.99,0.9,0.00031498026247371797
1096,0.3232886493206024,0.40862658619880676,0.99,0.9,0.00031498026247371797
1097,0.3232833445072174,0.4086099863052368,0.99,0.9,0.00031498026247371797
1098,0.3232864439487457,0.4084915220737457,0.99,0.9,0.00031498026247371797
1099,0.32329168915748596,0.40845078229904175,0.99,0.9,0.00031498026247371797
1100,0.32328444719314575,0.4084455966949463,0.99,0.9,0.00031498026247371797
1101,0.32328689098358154,0.408458411693573,0.99,0.9,0.00031498026247371797
1102,0.3232819437980652,0.40850555896759033,0.99,0.9,0.00031498026247371797
1103,0.3232845664024353,0.40861350297927856,0.99,0.9,0.00031498026247371797
1104,0.3232859671115875,0.40868011116981506,0.99,0.9,0.00031498026247371797
1105,0.3232876658439636,0.4088016748428345,0.99,0.89,0.00031498026247371797
1106,0.3232905864715576,0.4088065028190613,0.99,0.89,0.00031498026247371797
1107,0.3232859671115875,0.4089135229587555,0.99,0.89,0.00031498026247371797
1108,0.3232845664024353,0.4090290367603302,0.99,0.89,0.00031498026247371797
1109,0.32328730821609497,0.40905746817588806,0.99,0.89,0.00031498026247371797
1110,0.3232838809490204,0.40918418765068054,0.99,0.89,0.00031498026247371797
1111,0.3232828974723816,0.4092455804347992,0.99,0.89,0.00031498026247371797
1112,0.32328495383262634,0.40933722257614136,0.99,0.89,0.00031498026247371797
1113,0.3232855200767517,0.4093707799911499,0.99,0.89,0.00031498026247371797
1114,0.32328879833221436,0.4094201922416687,0.99,0.89,0.00031498026247371797
1115,0.3232884109020233,0.4095061421394348,0.99,0.89,0.00031498026247371797
1116,0.3232888877391815,0.40957286953926086,0.99,0.89,0.00031498026247371797
1117,0.32328641414642334,0.40946638584136963,0.99,0.9,0.00031498026247371797
1118,0.32328251004219055,0.4094119966030121,0.99,0.9,0.00031498026247371797
1119,0.32328519225120544,0.4093991219997406,0.99,0.9,0.00031498026247371797
1120,0.32328683137893677,0.4092952013015747,0.99,0.9,0.00031498026247371797
1121,0.3232917785644531,0.40912488102912903,0.99,0.9,0.00031498026247371797
1122,0.3232865631580353,0.4090379476547241,0.99,0.9,0.00031498026247371797
1123,0.3232872784137726,0.4090494215488434,0.99,0.9,0.00031498026247371797
1124,0.3232826590538025,0.4089215397834778,0.99,0.91,0.00031498026247371797
1125,0.32328519225120544,0.40889084339141846,0.99,0.91,0.00031498026247371797
1126,0.32328659296035767,0.40873488783836365,0.99,0.91,0.00031498026247371797
1127,0.323288232088089,0.4085976481437683,0.99,0.91,0.00031498026247371797
1128,0.3232855200767517,0.4086233973503113,0.99,0.9,0.00031498026247371797
1129,0.3232882022857666,0.40858614444732666,0.99,0.9,0.00031498026247371797
1130,0.32328224182128906,0.4085812270641327,0.99,0.9,0.00031498026247371797
1131,0.3232831060886383,0.4085683524608612,0.99,0.9,0.00031498026247371797
1132,0.32328343391418457,0.40860190987586975,0.99,0.9,0.00031498026247371797
1133,0.3232852518558502,0.40861570835113525,0.99,0.9,0.00031498026247371797
1134,0.32328853011131287,0.4087201654911041,0.99,0.9,0.00031498026247371797
1135,0.3232842683792114,0.4087355434894562,0.99,0.9,0.00031498026247371797
1136,0.3232901096343994,0.4087085723876953,0.99,0.9,0.00031498026247371797
1137,0.32329002022743225,0.40850791335105896,0.99,0.9,0.00031498026247371797
1138,0.3232845366001129,0.40848881006240845,0.99,0.9,0.00031498026247371797
1139,0.32328617572784424,0.4084753394126892,0.99,0.9,0.00031498026247371797
1140,0.32328730821609497,0.4084475040435791,0.99,0.9,0.00031498026247371797
1141,0.32328715920448303,0.408438503742218,0.99,0.9,0.00031498026247371797
1142,0.3232848644256592,0.4083941578865051,0.99,0.9,0.00031498026247371797
1143,0.32328832149505615,0.40835580229759216,0.99,0.9,0.00031498026247371797
1144,0.32328614592552185,0.40842777490615845,0.99,0.9,0.00031498026247371797
1145,0.3232838809490204,0.4085128903388977,0.99,0.9,0.00031498026247371797
1146,0.32328590750694275,0.40856724977493286,0.99,0.9,0.00031498026247371797
1147,0.32328495383262634,0.40845000743865967,0.99,0.9,0.00031498026247371797
1148,0.3232831656932831,0.40841639041900635,0.99,0.9,0.00031498026247371797
1149,0.32329413294792175,0.40835830569267273,0.99,0.9,0.00031498026247371797
1150,0.32328709959983826,0.40815627574920654,0.99,0.9,0.0002499999999999997
1151,0.3232864737510681,0.40790852904319763,0.99,0.9,0.0002499999999999997
1152,0.3232874572277069,0.4077639877796173,0.99,0.91,0.0002499999999999997
1153,0.3232896327972412,0.4076401889324188,0.99,0.9,0.0002499999999999997
1154,0.32328346371650696,0.40756821632385254,0.99,0.9,0.0002499999999999997
1155,0.3232828378677368,0.40755894780158997,0.99,0.9,0.0002499999999999997
1156,0.32328417897224426,0.40751439332962036,0.99,0.9,0.0002499999999999997
1157,0.32328444719314575,0.4075368046760559,0.99,0.9,0.0002499999999999997
1158,0.32328522205352783,0.4076153039932251,0.99,0.9,0.0002499999999999997
1159,0.3232852816581726,0.40788817405700684,0.99,0.9,0.0002499999999999997
1160,0.32328495383262634,0.4079202711582184,0.99,0.9,0.0002499999999999997
1161,0.3232870399951935,0.40807315707206726,0.99,0.9,0.0002499999999999997
1162,0.32328519225120544,0.4082450568675995,0.99,0.9,0.0002499999999999997
1163,0.3232870399951935,0.4083646833896637,0.99,0.9,0.0002499999999999997
1164,0.3232826590538025,0.4084988832473755,0.99,0.9,0.0002499999999999997
1165,0.32328444719314575,0.40867483615875244,0.99,0.9,0.0002499999999999997
1166,0.32328373193740845,0.4088459312915802,0.99,0.9,0.0002499999999999997
1167,0.3232839107513428,0.4090442955493927,0.99,0.89,0.0002499999999999997
1168,0.32328301668167114,0.40923210978507996,0.99,0.89,0.0002499999999999997
1169,0.3232858180999756,0.4094213843345642,0.99,0.89,0.0002499999999999997
1170,0.32328784465789795,0.4095827341079712,0.99,0.89,0.0002499999999999997
1171,0.323283314704895,0.40968650579452515,0.99,0.89,0.0002499999999999997
1172,0.3232845962047577,0.409892201423645,0.99,0.89,0.0002499999999999997
1173,0.3232877850532532,0.4100656807422638,0.99,0.89,0.0002499999999999997
1174,0.3232826888561249,0.41014420986175537,0.99,0.89,0.0002499999999999997
1175,0.3232857584953308,0.4101770520210266,0.99,0.89,0.0002499999999999997
1176,0.3232855498790741,0.4101942181587219,0.99,0.89,0.0002499999999999997
1177,0.3232828378677368,0.4101729094982147,0.99,0.89,0.0002499999999999997
1178,0.3232809007167816,0.410233736038208,0.99,0.89,0.0002499999999999997
1179,0.323281854391098,0.41024112701416016,0.99,0.89,0.0002499999999999997
1180,0.3232885003089905,0.4103011190891266,0.99,0.89,0.0002499999999999997
1181,0.323282390832901,0.41016265749931335,0.99,0.89,0.0002499999999999997
1182,0.3232836425304413,0.4101467430591583,0.99,0.89,0.0002499999999999997
1183,0.32328155636787415,0.4100862741470337,0.99,0.89,0.0002499999999999997
1184,0.3232867121696472,0.40999096632003784,0.99,0.89,0.0002499999999999997
1185,0.3232860267162323,0.4098908305168152,0.99,0.9,0.0002499999999999997
1186,0.3232840299606323,0.4097349941730499,0.99,0.9,0.0002499999999999997
1187,0.323282390832901,0.40962278842926025,0.99,0.9,0.0002499999999999997
1188,0.3232831656932831,0.40948882699012756,0.99,0.89,0.0002499999999999997
1189,0.32329097390174866,0.4095345437526703,0.99,0.9,0.0002499999999999997
1190,0.32328474521636963,0.4094054102897644,0.99,0.89,0.0002499999999999997
1191,0.32328373193740845,0.409415066242218,0.99,0.89,0.0002499999999999997
1192,0.32328444719314575,0.40937623381614685,0.99,0.89,0.0002499999999999997
1193,0.323282927274704,0.4093490242958069,0.99,0.89,0.0002499999999999997
1194,0.32328400015830994,0.40935948491096497,0.99,0.89,0.0002499999999999997
1195,0.3232840299606323,0.409371554851532,0.99,0.89,0.0002499999999999997
1196,0.32328346371650696,0.4093341529369354,0.99,0.89,0.0002499999999999997
1197,0.323283314704895,0.4093098044395447,0.99,0.89,0.0002499999999999997
1198,0.32328522205352783,0.4093035161495209,0.99,0.89,0.0002499999999999997
1199,0.3232851028442383,0.40934181213378906,0.99,0.89,0.0002499999999999997
1200,0.32328277826309204,0.4093683660030365,0.99,0.89,0.0002499999999999997
1201,0.3232850134372711,0.40941840410232544,0.99,0.89,0.0002499999999999997
1202,0.323287695646286,0.4094259738922119,0.99,0.89,0.0002499999999999997
1203,0.32328537106513977,0.4094119966030121,0.99,0.89,0.0002499999999999997
1204,0.3232840597629547,0.409509539604187,0.99,0.89,0.0002499999999999997
1205,0.3232845664024353,0.4095788300037384,0.99,0.89,0.0002499999999999997
1206,0.3232877254486084,0.40957531332969666,0.99,0.89,0.0002499999999999997
1207,0.32328060269355774,0.4096718728542328,0.99,0.89,0.0002499999999999997
1208,0.32328346371650696,0.40972721576690674,0.99,0.89,0.0002499999999999997
1209,0.3232831656932831,0.4097951054573059,0.99,0.89,0.0002499999999999997
1210,0.32328513264656067,0.40985599160194397,0.99,0.88,0.0002499999999999997
1211,0.3232811391353607,0.4099048674106598,0.99,0.88,0.0002499999999999997
1212,0.32328566908836365,0.4100799262523651,0.99,0.88,0.0002499999999999997
1213,0.32328417897224426,0.410160630941391,0.99,0.88,0.0002499999999999997
1214,0.3232864737510681,0.410236120223999,0.99,0.88,0.0002499999999999997
1215,0.3233187198638916,0.4095088243484497,0.99,0.9,0.0002499999999999997
1216,0.3232817053794861,0.4087046682834625,0.99,0.9,0.0002499999999999997
1217,0.32328277826309204,0.4078661799430847,0.99,0.91,0.0002499999999999997
1218,0.3232826590538025,0.4072455167770386,0.99,0.91,0.0002499999999999997
1219,0.32328468561172485,0.4067572057247162,0.99,0.91,0.0002499999999999997
1220,0.32328566908836365,0.40631550550460815,0.99,0.91,0.0002499999999999997
1221,0.3232884109020233,0.40623366832733154,0.99,0.91,0.0002499999999999997
1222,0.32328593730926514,0.4060681462287903,0.99,0.91,0.0002499999999999997
1223,0.32328537106513977,0.40609320998191833,0.99,0.91,0.0002499999999999997
1224,0.3232886493206024,0.4061914384365082,0.99,0.91,0.0002499999999999997
1225,0.3232860267162323,0.40630242228507996,0.99,0.9,0.0002499999999999997
1226,0.3232870399951935,0.406631737947464,0.99,0.9,0.0002499999999999997
1227,0.3232864737510681,0.40694329142570496,0.99,0.9,0.0002499999999999997
1228,0.3232840597629547,0.4073217511177063,0.99,0.9,0.0002499999999999997
1229,0.32328522205352783,0.4077111482620239,0.99,0.9,0.0002499999999999997
1230,0.32328593730926514,0.4080260396003723,0.99,0.9,0.0002499999999999997
1231,0.3232855200767517,0.4084661602973938,0.99,0.9,0.0002499999999999997
1232,0.32328495383262634,0.40876469016075134,0.99,0.89,0.0002499999999999997
1233,0.3232881426811218,0.4090266823768616,0.99,0.89,0.0002499999999999997
1234,0.3232857882976532,0.40933558344841003,0.99,0.89,0.0002499999999999997
1235,0.3232867121696472,0.4094582796096802,0.99,0.89,0.0002499999999999997
1236,0.3232826888561249,0.4096987247467041,0.99,0.89,0.0002499999999999997
1237,0.32328853011131287,0.4096487760543823,0.99,0.89,0.0002499999999999997
1238,0.32328346371650696,0.40971630811691284,0.99,0.89,0.0002499999999999997
1239,0.3232814371585846,0.4098323881626129,0.99,0.89,0.0002499999999999997
1240,0.323282390832901,0.4099125266075134,0.99,0.89,0.0002499999999999997
1241,0.323282390832901,0.41011717915534973,0.99,0.89,0.0002499999999999997
1242,0.32328087091445923,0.4102016091346741,0.99,0.89,0.0002499999999999997
1243,0.3232872486114502,0.410386323928833,0.99,0.89,0.0002499999999999997
1244,0.32328152656555176,0.41054004430770874,0.99,0.89,0.0002499999999999997
1245,0.323282927274704,0.41057339310646057,0.99,0.89,0.0002499999999999997
1246,0.32328304648399353,0.4107423722743988,0.99,0.89,0.0002499999999999997
1247,0.3232831060886383,0.4108085334300995,0.99,0.89,0.0002499999999999997
1248,0.3232830762863159,0.41098135709762573,0.99,0.89,0.0002499999999999997
1249,0.3232858180999756,0.4109569787979126,0.99,0.89,0.0002499999999999997
1250,0.32328158617019653,0.41091305017471313,0.99,0.89,0.0002499999999999997
1251,0.32328441739082336,0.41080883145332336,0.99,0.89,0.00019842513149602464
1252,0.32328200340270996,0.4107344448566437,0.99,0.89,0.00019842513149602464
1253,0.32328248023986816,0.4107271134853363,0.99,0.89,0.00019842513149602464
1254,0.32328686118125916,0.41064217686653137,0.99,0.89,0.00019842513149602464
1255,0.3232853412628174,0.4105440378189087,0.99,0.89,0.00019842513149602464
1256,0.3232811689376831,0.41045552492141724,0.99,0.89,0.00019842513149602464
1257,0.323284387588501,0.4104882776737213,0.99,0.89,0.00019842513149602464
1258,0.32328322529792786,0.4104776680469513,0.99,0.89,0.00019842513149602464
1259,0.32328057289123535,0.41040968894958496,0.99,0.89,0.00019842513149602464
1260,0.32328173518180847,0.41046860814094543,0.99,0.89,0.00019842513149602464
1261,0.32328560948371887,0.41032087802886963,0.99,0.9,0.00019842513149602464
1262,0.3232813775539398,0.41028571128845215,0.99,0.9,0.00019842513149602464
1263,0.32328253984451294,0.41022664308547974,0.99,0.9,0.00019842513149602464
1264,0.32328131794929504,0.41019561886787415,0.99,0.9,0.00019842513149602464
1265,0.32328182458877563,0.41020137071609497,0.99,0.9,0.00019842513149602464
1266,0.32328349351882935,0.41025662422180176,0.99,0.89,0.00019842513149602464
1267,0.3232830762863159,0.4102810323238373,0.99,0.89,0.00019842513149602464
1268,0.3232804834842682,0.4103279113769531,0.99,0.89,0.00019842513149602464
1269,0.32328006625175476,0.41043341159820557,0.99,0.89,0.00019842513149602464
1270,0.3232830762863159,0.4104866683483124,0.99,0.89,0.00019842513149602464
1271,0.3232836127281189,0.4105405807495117,0.99,0.89,0.00019842513149602464
1272,0.3232913911342621,0.41039371490478516,0.99,0.89,0.00019842513149602464
1273,0.3232828378677368,0.4102615714073181,0.99,0.9,0.00019842513149602464
1274,0.32328686118125916,0.41008540987968445,0.99,0.9,0.00019842513149602464
1275,0.3232830762863159,0.40988051891326904,0.99,0.9,0.00019842513149602464
1276,0.3232859671115875,0.4096851646900177,0.99,0.9,0.00019842513149602464
1277,0.32328152656555176,0.4095912575721741,0.99,0.9,0.00019842513149602464
1278,0.3232875168323517,0.4094216227531433,0.99,0.9,0.00019842513149602464
1279,0.3232836127281189,0.409394770860672,0.99,0.9,0.00019842513149602464
1280,0.3232845664024353,0.4093278646469116,0.99,0.9,0.00019842513149602464
1281,0.3232826292514801,0.40926745533943176,0.99,0.9,0.00019842513149602464
1282,0.3232830762863159,0.4092999994754791,0.99,0.9,0.00019842513149602464
1283,0.3232828378677368,0.40931060910224915,0.99,0.89,0.00019842513149602464
1284,0.3232820928096771,0.40930259227752686,0.99,0.89,0.00019842513149602464
1285,0.32327860593795776,0.4093802571296692,0.99,0.89,0.00019842513149602464
1286,0.3232831656932831,0.409445583820343,0.99,0.89,0.00019842513149602464
1287,0.3232804834842682,0.40962809324264526,0.99,0.89,0.00019842513149602464
1288,0.3232818841934204,0.4097776412963867,0.99,0.89,0.00019842513149602464
1289,0.32328376173973083,0.4099534749984741,0.99,0.89,0.00019842513149602464
1290,0.3232822120189667,0.41013431549072266,0.99,0.89,0.00019842513149602464
1291,0.32328087091445923,0.4102519750595093,0.99,0.89,0.00019842513149602464
1292,0.3232816755771637,0.41045472025871277,0.99,0.89,0.00019842513149602464
1293,0.32328587770462036,0.41054680943489075,0.99,0.89,0.00019842513149602464
1294,0.3232824206352234,0.4106900095939636,0.99,0.89,0.00019842513149602464
1295,0.323279470205307,0.41086655855178833,0.99,0.89,0.00019842513149602464
1296,0.32328227162361145,0.41095662117004395,0.99,0.89,0.00019842513149602464
1297,0.3232826590538025,0.41112610697746277,0.99,0.89,0.00019842513149602464
1298,0.32328006625175476,0.41129863262176514,0.99,0.89,0.00019842513149602464
1299,0.3232879638671875,0.41144347190856934,0.99,0.89,0.00019842513149602464
1300,0.32328104972839355,0.4115752875804901,0.99,0.89,0.00019842513149602464
1301,0.32327979803085327,0.411704421043396,0.99,0.88,0.00019842513149602464
1302,0.3232855498790741,0.41175204515457153,0.99,0.88,0.00019842513149602464
1303,0.3232799172401428,0.4118736982345581,0.99,0.88,0.00019842513149602464
1304,0.3232877254486084,0.41188037395477295,0.99,0.88,0.00019842513149602464
1305,0.32328087091445923,0.4118701219558716,0.99,0.88,0.00019842513149602464
1306,0.32328659296035767,0.4118506610393524,0.99,0.89,0.00019842513149602464
1307,0.3232836127281189,0.41172993183135986,0.99,0.89,0.00019842513149602464
1308,0.3232835829257965,0.41166767477989197,0.99,0.89,0.00019842513149602464
1309,0.3232814073562622,0.41155898571014404,0.99,0.89,0.00019842513149602464
1310,0.3232836127281189,0.4113835394382477,0.99,0.89,0.00019842513149602464
1311,0.323283314704895,0.41132956743240356,0.99,0.89,0.00019842513149602464
1312,0.3232811689376831,0.41132813692092896,0.99,0.89,0.00019842513149602464
1313,0.32328730821609497,0.41126322746276855,0.99,0.89,0.00019842513149602464
1314,0.32328569889068604,0.4111431837081909,0.99,0.89,0.00019842513149602464
1315,0.323281466960907,0.41098010540008545,0.99,0.89,0.00019842513149602464
1316,0.3232857882976532,0.41085705161094666,0.99,0.89,0.00019842513149602464
1317,0.32328280806541443,0.41081294417381287,0.99,0.89,0.00019842513149602464
1318,0.323281466960907,0.41072067618370056,0.99,0.9,0.00019842513149602464
1319,0.3232818841934204,0.41063225269317627,0.99,0.89,0.00019842513149602464
1320,0.32328084111213684,0.4106271266937256,0.99,0.89,0.00019842513149602464
1321,0.3232828974723816,0.41060012578964233,0.99,0.89,0.00019842513149602464
1322,0.3232799172401428,0.4105784296989441,0.99,0.89,0.00019842513149602464
1323,0.32328128814697266,0.41058552265167236,0.99,0.89,0.00019842513149602464
1324,0.3232811987400055,0.41061753034591675,0.99,0.89,0.00019842513149602464
1325,0.3232820928096771,0.410666286945343,0.99,0.89,0.00019842513149602464
1326,0.3232835531234741,0.4105908274650574,0.99,0.9,0.00019842513149602464
1327,0.323282390832901,0.4105612635612488,0.99,0.9,0.00019842513149602464
1328,0.3232828974723816,0.41047412157058716,0.99,0.9,0.00019842513149602464
1329,0.32328078150749207,0.4104016125202179,0.99,0.9,0.00019842513149602464
1330,0.3232831060886383,0.4103938639163971,0.99,0.9,0.00019842513149602464
1331,0.3232801556587219,0.4104210138320923,0.99,0.9,0.00019842513149602464
1332,0.32328087091445923,0.41047897934913635,0.99,0.9,0.00019842513149602464
1333,0.32328200340270996,0.4105510413646698,0.99,0.9,0.00019842513149602464
1334,0.32327908277511597,0.4106372892856598,0.99,0.9,0.00019842513149602464
1335,0.32328036427497864,0.41068312525749207,0.99,0.9,0.00019842513149602464
1336,0.32328179478645325,0.4107888340950012,0.99,0.9,0.00019842513149602464
1337,0.32327908277511597,0.41087964177131653,0.99,0.9,0.00019842513149602464
1338,0.3232854902744293,0.4109514355659485,0.99,0.9,0.00019842513149602464
1339,0.32328182458877563,0.41099289059638977,0.99,0.9,0.00019842513149602464
1340,0.32328227162361145,0.41103583574295044,0.99,0.9,0.00019842513149602464
1341,0.32328084111213684,0.41107508540153503,0.99,0.9,0.00019842513149602464
1342,0.3232845366001129,0.41107243299484253,0.99,0.9,0.00019842513149602464
1343,0.32328224182128906,0.41113242506980896,0.99,0.9,0.00019842513149602464
1344,0.3232801556587219,0.4111505150794983,0.99,0.9,0.00019842513149602464
1345,0.32327839732170105,0.411208838224411,0.99,0.9,0.00019842513149602464
1346,0.32328560948371887,0.4112807810306549,0.99,0.9,0.00019842513149602464
1347,0.32328251004219055,0.4112355709075928,0.99,0.9,0.00019842513149602464
1348,0.32328808307647705,0.41124966740608215,0.99,0.9,0.00019842513149602464
1349,0.32328811287879944,0.41097697615623474,0.99,0.9,0.00019842513149602464
1350,0.32328513264656067,0.4107092320919037,0.99,0.9,0.00019842513149602464
1351,0.32328468561172485,0.41041386127471924,0.99,0.9,0.00019842513149602464
1352,0.323280930519104,0.410134494304657,0.99,0.9,0.00015749013123685888
1353,0.32327914237976074,0.4099874794483185,0.99,0.9,0.00015749013123685888
1354,0.32328033447265625,0.40984898805618286,0.99,0.9,0.00015749013123685888
1355,0.32328474521636963,0.4098028838634491,0.99,0.9,0.00015749013123685888
1356,0.3232817053794861,0.4098013639450073,0.99,0.9,0.00015749013123685888
1357,0.32328492403030396,0.40972328186035156,0.99,0.9,0.00015749013123685888
1358,0.32328131794929504,0.4097151458263397,0.99,0.9,0.00015749013123685888
1359,0.32328417897224426,0.4097581207752228,0.99,0.9,0.00015749013123685888
1360,0.3232838809490204,0.40984824299812317,0.99,0.9,0.00015749013123685888
1361,0.3232814073562622,0.4099769592285156,0.99,0.89,0.00015749013123685888
1362,0.3232811391353607,0.41005560755729675,0.99,0.89,0.00015749013123685888
1363,0.3232795298099518,0.4102188050746918,0.99,0.89,0.00015749013123685888
1364,0.32327955961227417,0.4103842079639435,0.99,0.89,0.00015749013123685888
1365,0.3232806324958801,0.4104897975921631,0.99,0.89,0.00015749013123685888
1366,0.32328319549560547,0.4106977880001068,0.99,0.89,0.00015749013123685888
1367,0.3232821524143219,0.41085419058799744,0.99,0.89,0.00015749013123685888
1368,0.3232809901237488,0.4110104441642761,0.99,0.89,0.00015749013123685888
1369,0.3232816457748413,0.4111335873603821,0.99,0.89,0.00015749013123685888
1370,0.32327961921691895,0.4112519919872284,0.99,0.89,0.00015749013123685888
1371,0.3232852816581726,0.4112709164619446,0.99,0.89,0.00015749013123685888
1372,0.323289155960083,0.411171555519104,0.99,0.89,0.00015749013123685888
1373,0.32327964901924133,0.4110264480113983,0.99,0.89,0.00015749013123685888
1374,0.3232818841934204,0.41095954179763794,0.99,0.89,0.00015749013123685888
1375,0.3232865631580353,0.41088008880615234,0.99,0.9,0.00015749013123685888
1376,0.3232845067977905,0.4107990562915802,0.99,0.9,0.00015749013123685888
1377,0.32328301668167114,0.41076159477233887,0.99,0.9,0.00015749013123685888
1378,0.32328078150749207,0.41066402196884155,0.99,0.9,0.00015749013123685888
1379,0.3232837915420532,0.4106886684894562,0.99,0.89,0.00015749013123685888
1380,0.3232802152633667,0.4107487201690674,0.99,0.89,0.00015749013123685888
1381,0.3232796788215637,0.4108562767505646,0.99,0.89,0.00015749013123685888
1382,0.3232818841934204,0.4108930230140686,0.99,0.89,0.00015749013123685888
1383,0.3232799172401428,0.41097351908683777,0.99,0.89,0.00015749013123685888
1384,0.32328537106513977,0.4110851585865021,0.99,0.89,0.00015749013123685888
1385,0.32328665256500244,0.4111534059047699,0.99,0.89,0.00015749013123685888
1386,0.32328227162361145,0.4112710952758789,0.99,0.89,0.00015749013123685888
1387,0.32328274846076965,0.41140681505203247,0.99,0.89,0.00015749013123685888
1388,0.3232801556587219,0.41153374314308167,0.99,0.89,0.00015749013123685888
1389,0.32327988743782043,0.4116491973400116,0.99,0.89,0.00015749013123685888
1390,0.3232824206352234,0.4117213189601898,0.99,0.89,0.00015749013123685888
1391,0.3232809007167816,0.4118012487888336,0.99,0.89,0.00015749013123685888
1392,0.3232800364494324,0.4118679165840149,0.99,0.89,0.00015749013123685888
1393,0.323279470205307,0.412007600069046,0.99,0.88,0.00015749013123685888
1394,0.3232814073562622,0.41211360692977905,0.99,0.88,0.00015749013123685888
1395,0.3232782781124115,0.4122488498687744,0.99,0.88,0.00015749013123685888
1396,0.3232826292514801,0.41233935952186584,0.99,0.88,0.00015749013123685888
1397,0.3232795298099518,0.41240352392196655,0.99,0.88,0.00015749013123685888
1398,0.32328087091445923,0.41246384382247925,0.99,0.88,0.00015749013123685888
1399,0.32327982783317566,0.41246670484542847,0.99,0.88,0.00015749013123685888
1400,0.32328006625175476,0.4125424325466156,0.99,0.88,0.00015749013123685888
1401,0.3232894241809845,0.4124869406223297,0.99,0.88,0.00015749013123685888
1402,0.32327911257743835,0.4123637080192566,0.99,0.89,0.00015749013123685888
1403,0.32327988743782043,0.4122869074344635,0.99,0.89,0.00015749013123685888
1404,0.3232795000076294,0.4121960699558258,0.99,0.9,0.00015749013123685888
1405,0.32328125834465027,0.4121328294277191,0.99,0.9,0.00015749013123685888
1406,0.32327887415885925,0.41208821535110474,0.99,0.9,0.00015749013123685888
1407,0.3232787847518921,0.4120344817638397,0.99,0.9,0.00015749013123685888
1408,0.3232797682285309,0.41205546259880066,0.99,0.9,0.00015749013123685888
1409,0.3232797682285309,0.4119705557823181,0.99,0.9,0.00015749013123685888
1410,0.32328563928604126,0.412001371383667,0.99,0.9,0.00015749013123685888
1411,0.3232811987400055,0.4120444357395172,0.99,0.9,0.00015749013123685888
1412,0.323279470205307,0.4121147096157074,0.99,0.9,0.00015749013123685888
1413,0.32328036427497864,0.4121325612068176,0.99,0.9,0.00015749013123685888
1414,0.3232809901237488,0.41222384572029114,0.99,0.9,0.00015749013123685888
1415,0.32328125834465027,0.4122200310230255,0.99,0.9,0.00015749013123685888
1416,0.32328158617019653,0.41229262948036194,0.99,0.89,0.00015749013123685888
1417,0.32328033447265625,0.4123544692993164,0.99,0.89,0.00015749013123685888
1418,0.3232806921005249,0.4124253988265991,0.99,0.89,0.00015749013123685888
1419,0.32328179478645325,0.41252994537353516,0.99,0.89,0.00015749013123685888
1420,0.32327988743782043,0.41261187195777893,0.99,0.89,0.00015749013123685888
1421,0.32327982783317566,0.4126701354980469,0.99,0.89,0.00015749013123685888
1422,0.3232795000076294,0.4127591848373413,0.99,0.89,0.00015749013123685888
1423,0.323278546333313,0.4128555655479431,0.99,0.89,0.00015749013123685888
1424,0.32328423857688904,0.41295722126960754,0.99,0.89,0.00015749013123685888
1425,0.3232821524143219,0.41304388642311096,0.99,0.88,0.00015749013123685888
1426,0.3232807219028473,0.4130655527114868,0.99,0.88,0.00015749013123685888
1427,0.3232796788215637,0.41309231519699097,0.99,0.89,0.00015749013123685888
1428,0.32328006625175476,0.4130942225456238,0.99,0.89,0.00015749013123685888
1429,0.3232780396938324,0.4131115674972534,0.99,0.89,0.00015749013123685888
1430,0.32327941060066223,0.41310906410217285,0.99,0.89,0.00015749013123685888
1431,0.3232789933681488,0.41307953000068665,0.99,0.89,0.00015749013123685888
1432,0.3232778310775757,0.4130461812019348,0.99,0.89,0.00015749013123685888
1433,0.32327988743782043,0.4129788279533386,0.99,0.89,0.00015749013123685888
1434,0.32328087091445923,0.41292059421539307,0.99,0.9,0.00015749013123685888
1435,0.32328495383262634,0.4127954840660095,0.99,0.9,0.00015749013123685888
1436,0.32328251004219055,0.412759006023407,0.99,0.9,0.00015749013123685888
1437,0.32327982783317566,0.4126739501953125,0.99,0.9,0.00015749013123685888
1438,0.3232795000076294,0.4126459062099457,0.99,0.9,0.00015749013123685888
1439,0.32328370213508606,0.4125921130180359,0.99,0.9,0.00015749013123685888
1440,0.3232785761356354,0.4125652611255646,0.99,0.9,0.00015749013123685888
1441,0.323278546333313,0.4125556945800781,0.99,0.9,0.00015749013123685888
1442,0.323278546333313,0.41255587339401245,0.99,0.9,0.00015749013123685888
1443,0.3232871890068054,0.41248252987861633,0.99,0.9,0.00015749013123685888
1444,0.3232807517051697,0.4123934209346771,0.99,0.9,0.00015749013123685888
1445,0.3232833445072174,0.4122825264930725,0.99,0.9,0.00015749013123685888
1446,0.3232784569263458,0.4121508002281189,0.99,0.9,0.00015749013123685888
1447,0.3232804536819458,0.41207826137542725,0.99,0.9,0.00015749013123685888
1448,0.3232795000076294,0.4120577275753021,0.99,0.9,0.00015749013123685888
1449,0.32328227162361145,0.41207778453826904,0.99,0.9,0.00015749013123685888
1450,0.3232799172401428,0.4120866358280182,0.99,0.9,0.00015749013123685888
1451,0.3232783377170563,0.4121963083744049,0.99,0.9,0.00015749013123685888
1452,0.3232797682285309,0.4122788608074188,0.99,0.9,0.00015749013123685888
1453,0.3232799172401428,0.4123014211654663,0.99,0.9,0.00012499999999999976
1454,0.32328152656555176,0.4123283624649048,0.99,0.9,0.00012499999999999976
1455,0.32327908277511597,0.4123660624027252,0.99,0.9,0.00012499999999999976
1456,0.3232814073562622,0.41240280866622925,0.99,0.9,0.00012499999999999976
1457,0.32327961921691895,0.4124646484851837,0.99,0.9,0.00012499999999999976
1458,0.3232792317867279,0.41244471073150635,0.99,0.9,0.00012499999999999976
1459,0.3232775032520294,0.4124664068222046,0.99,0.9,0.00012499999999999976
1460,0.32328373193740845,0.41246742010116577,0.99,0.9,0.00012499999999999976
1461,0.3232783079147339,0.41244879364967346,0.99,0.9,0.00012499999999999976
1462,0.3232786953449249,0.4124522805213928,0.99,0.9,0.00012499999999999976
1463,0.32328006625175476,0.41246291995048523,0.99,0.9,0.00012499999999999976
1464,0.3232811987400055,0.4124653935432434,0.99,0.9,0.00012499999999999976
1465,0.32328587770462036,0.4123598337173462,0.99,0.9,0.00012499999999999976
1466,0.32327964901924133,0.41226646304130554,0.99,0.9,0.00012499999999999976
1467,0.3232785761356354,0.41224342584609985,0.99,0.9,0.00012499999999999976
1468,0.32328227162361145,0.4121626913547516,0.99,0.9,0.00012499999999999976
1469,0.32328179478645325,0.41208216547966003,0.99,0.9,0.00012499999999999976
1470,0.32328036427497864,0.41206833720207214,0.99,0.9,0.00012499999999999976
1471,0.3232820928096771,0.41206124424934387,0.99,0.9,0.00012499999999999976
1472,0.3232778310775757,0.4120725691318512,0.99,0.9,0.00012499999999999976
1473,0.3232821226119995,0.4120602309703827,0.99,0.9,0.00012499999999999976
1474,0.32327765226364136,0.4120636284351349,0.99,0.9,0.00012499999999999976
1475,0.3232792317867279,0.41212302446365356,0.99,0.9,0.00012499999999999976
1476,0.32327893376350403,0.41214632987976074,0.99,0.9,0.00012499999999999976
1477,0.32328179478645325,0.41215211153030396,0.99,0.9,0.00012499999999999976
1478,0.3232787251472473,0.41220173239707947,0.99,0.9,0.00012499999999999976
1479,0.32328030467033386,0.41223618388175964,0.99,0.9,0.00012499999999999976
1480,0.3232797384262085,0.41227808594703674,0.99,0.9,0.00012499999999999976
1481,0.3232835531234741,0.4123269021511078,0.99,0.9,0.00012499999999999976
1482,0.3232783377170563,0.41241660714149475,0.99,0.9,0.00012499999999999976
1483,0.3232775926589966,0.41242653131484985,0.99,0.9,0.00012499999999999976
1484,0.32327887415885925,0.412507027387619,0.99,0.9,0.00012499999999999976
1485,0.3232828974723816,0.4125077724456787,0.99,0.9,0.00012499999999999976
1486,0.3232826888561249,0.41249412298202515,0.99,0.9,0.00012499999999999976
1487,0.3232785761356354,0.4124905467033386,0.99,0.9,0.00012499999999999976
1488,0.3232792913913727,0.4124840199947357,0.99,0.9,0.00012499999999999976
1489,0.3232799768447876,0.41243720054626465,0.99,0.9,0.00012499999999999976
1490,0.3232795298099518,0.41245758533477783,0.99,0.9,0.00012499999999999976
1491,0.3232785761356354,0.41246742010116577,0.99,0.9,0.00012499999999999976
1492,0.323278546333313,0.41248515248298645,0.99,0.9,0.00012499999999999976
1493,0.3232797384262085,0.41253048181533813,0.99,0.9,0.00012499999999999976
1494,0.32328155636787415,0.412580668926239,0.99,0.9,0.00012499999999999976
1495,0.3232792019844055,0.4126114249229431,0.99,0.9,0.00012499999999999976
1496,0.32327792048454285,0.4126121401786804,0.99,0.9,0.00012499999999999976
1497,0.3232785165309906,0.4126821756362915,0.99,0.9,0.00012499999999999976
1498,0.32328104972839355,0.41276246309280396,0.99,0.9,0.00012499999999999976
1499,0.3232801854610443,0.4127615988254547,0.99,0.9,0.00012499999999999976
1500,0.32328057289123535,0.4128352999687195,0.99,0.9,0.00012499999999999976
1501,0.3232820928096771,0.4128612279891968,0.99,0.9,0.00012499999999999976
1502,0.32328036427497864,0.4128897786140442,0.99,0.9,0.00012499999999999976
1503,0.3232802450656891,0.4128892421722412,0.99,0.9,0.00012499999999999976
1504,0.32327887415885925,0.41288602352142334,0.99,0.9,0.00012499999999999976
1505,0.32327866554260254,0.41295042634010315,0.99,0.9,0.00012499999999999976
1506,0.3232768774032593,0.41299474239349365,0.99,0.9,0.00012499999999999976
1507,0.323278546333313,0.4130198657512665,0.99,0.9,0.00012499999999999976
1508,0.323281854391098,0.4130863547325134,0.99,0.9,0.00012499999999999976
1509,0.32327893376350403,0.41313618421554565,0.99,0.9,0.00012499999999999976
1510,0.32327738404273987,0.4131949245929718,0.99,0.9,0.00012499999999999976
1511,0.3232814371585846,0.41324537992477417,0.99,0.9,0.00012499999999999976
1512,0.32327982783317566,0.4133068323135376,0.99,0.9,0.00012499999999999976
1513,0.3232758045196533,0.41336172819137573,0.99,0.9,0.00012499999999999976
1514,0.3232775032520294,0.4134003520011902,0.99,0.89,0.00012499999999999976
1515,0.3232789933681488,0.4134581685066223,0.99,0.89,0.00012499999999999976
1516,0.3232787251472473,0.4134621024131775,0.99,0.89,0.00012499999999999976
1517,0.3232783377170563,0.41351690888404846,0.99,0.89,0.00012499999999999976
1518,0.3232804834842682,0.4135134816169739,0.99,0.89,0.00012499999999999976
1519,0.32328104972839355,0.4134962558746338,0.99,0.89,0.00012499999999999976
1520,0.32327964901924133,0.4134356379508972,0.99,0.89,0.00012499999999999976
1521,0.3232805132865906,0.4135289490222931,0.99,0.89,0.00012499999999999976
1522,0.3232814371585846,0.4134905934333801,0.99,0.89,0.00012499999999999976
1523,0.3232802152633667,0.4134523868560791,0.99,0.89,0.00012499999999999976
1524,0.3232870399951935,0.4132117033004761,0.99,0.9,0.00012499999999999976
1525,0.32328030467033386,0.41289958357810974,0.99,0.9,0.00012499999999999976
1526,0.3232801854610443,0.4127125144004822,0.99,0.9,0.00012499999999999976
1527,0.32327893376350403,0.41258350014686584,0.99,0.9,0.00012499999999999976
1528,0.32328033447265625,0.4124191701412201,0.99,0.9,0.00012499999999999976
1529,0.3232785165309906,0.4122656285762787,0.99,0.9,0.00012499999999999976
1530,0.3232800364494324,0.4120970666408539,0.99,0.9,0.00012499999999999976
1531,0.3232799172401428,0.4119536280632019,0.99,0.9,0.00012499999999999976
1532,0.32328036427497864,0.4118516147136688,0.99,0.9,0.00012499999999999976
1533,0.32328036427497864,0.4117957055568695,0.99,0.9,0.00012499999999999976
1534,0.3232831060886383,0.4116595983505249,0.99,0.9,0.00012499999999999976
1535,0.3232807219028473,0.41157668828964233,0.99,0.9,0.00012499999999999976
1536,0.3232836127281189,0.41144874691963196,0.99,0.9,0.00012499999999999976
1537,0.3232822120189667,0.4114382266998291,0.99,0.9,0.00012499999999999976
1538,0.3232809901237488,0.41149452328681946,0.99,0.9,0.00012499999999999976
1539,0.323281854391098,0.4115934669971466,0.99,0.9,0.00012499999999999976
1540,0.32327914237976074,0.4117712676525116,0.99,0.9,0.00012499999999999976
1541,0.3232816755771637,0.41186657547950745,0.99,0.9,0.00012499999999999976
1542,0.3232804834842682,0.41198235750198364,0.99,0.9,0.00012499999999999976
1543,0.3232782483100891,0.41209056973457336,0.99,0.9,0.00012499999999999976
1544,0.32327815890312195,0.4121570587158203,0.99,0.89,0.00012499999999999976
1545,0.3232814371585846,0.4123167395591736,0.99,0.89,0.00012499999999999976
1546,0.3232767581939697,0.41247570514678955,0.99,0.89,0.00012499999999999976
1547,0.32327860593795776,0.4125915765762329,0.99,0.89,0.00012499999999999976
1548,0.3232778310775757,0.41269534826278687,0.99,0.89,0.00012499999999999976
1549,0.3232790231704712,0.41281840205192566,0.99,0.89,0.00012499999999999976
1550,0.3232826590538025,0.41292819380760193,0.99,0.89,0.00012499999999999976
1551,0.3232820928096771,0.41303905844688416,0.99,0.9,0.00012499999999999976
1552,0.3232806324958801,0.4129910171031952,0.99,0.9,0.00012499999999999976
1553,0.3232792615890503,0.4130096137523651,0.99,0.9,0.00012499999999999976
1554,0.3232806324958801,0.4130896031856537,0.99,0.9,0.0001
1555,0.3232811987400055,0.41308215260505676,0.99,0.9,0.0001
1556,0.32328009605407715,0.4131024181842804,0.99,0.9,0.0001
1557,0.3232799470424652,0.4131345748901367,0.99,0.9,0.0001
1558,0.3232777416706085,0.4131382703781128,0.99,0.9,0.0001
1559,0.3232790231704712,0.4131273925304413,0.99,0.9,0.0001
1560,0.3232799470424652,0.413100004196167,0.99,0.9,0.0001
1561,0.3232797682285309,0.4131225645542145,0.99,0.9,0.0001
1562,0.323278546333313,0.4131068289279938,0.99,0.9,0.0001
1563,0.32328206300735474,0.4130975306034088,0.99,0.9,0.0001
1564,0.3232809901237488,0.413095623254776,0.99,0.9,0.0001
1565,0.3232785165309906,0.4131027162075043,0.99,0.9,0.0001
1566,0.32327955961227417,0.413106769323349,0.99,0.9,0.0001
1567,0.3232779800891876,0.4130808115005493,0.99,0.9,0.0001
1568,0.3232785761356354,0.4130449593067169,0.99,0.9,0.0001
1569,0.32327893376350403,0.41305187344551086,0.99,0.9,0.0001
1570,0.3232806921005249,0.412932813167572,0.99,0.9,0.0001
1571,0.32327893376350403,0.41285228729248047,0.99,0.9,0.0001
1572,0.32327893376350403,0.4128173887729645,0.99,0.9,0.0001
1573,0.32327893376350403,0.4128148555755615,0.99,0.9,0.0001
1574,0.3232805132865906,0.41277453303337097,0.99,0.9,0.0001
1575,0.3232785761356354,0.4127267897129059,0.99,0.9,0.0001
1576,0.3232795298099518,0.41263753175735474,0.99,0.9,0.0001
1577,0.32327941060066223,0.4125897288322449,0.99,0.9,0.0001
1578,0.32328030467033386,0.41253653168678284,0.99,0.9,0.0001
1579,0.3232811391353607,0.41244807839393616,0.99,0.9,0.0001
1580,0.323276549577713,0.41243207454681396,0.99,0.9,0.0001
1581,0.3232804536819458,0.4124232530593872,0.99,0.9,0.0001
1582,0.3232788145542145,0.41243094205856323,0.99,0.9,0.0001
1583,0.3232779800891876,0.41244885325431824,0.99,0.9,0.0001
1584,0.32327866554260254,0.41251376271247864,0.99,0.9,0.0001
1585,0.3232819736003876,0.41252896189689636,0.99,0.9,0.0001
1586,0.32327914237976074,0.4125674366950989,0.99,0.9,0.0001
1587,0.3232816457748413,0.41259709000587463,0.99,0.9,0.0001
1588,0.32327887415885925,0.4126422107219696,0.99,0.9,0.0001
1589,0.32327792048454285,0.41269612312316895,0.99,0.9,0.0001
1590,0.3232766389846802,0.41275838017463684,0.99,0.9,0.0001
1591,0.3232792317867279,0.41278889775276184,0.99,0.89,0.0001
1592,0.3232833445072174,0.41279590129852295,0.99,0.9,0.0001
1593,0.32328009605407715,0.4127608835697174,0.99,0.9,0.0001
1594,0.3232783377170563,0.4127562344074249,0.99,0.9,0.0001
1595,0.3232775926589966,0.41276806592941284,0.99,0.9,0.0001
1596,0.32327860593795776,0.4127591848373413,0.99,0.9,0.0001
1597,0.32327866554260254,0.41277092695236206,0.99,0.9,0.0001
1598,0.3232800364494324,0.41279342770576477,0.99,0.9,0.0001
1599,0.32327941060066223,0.4127945303916931,0.99,0.9,0.0001
1600,0.3232764005661011,0.4128594696521759,0.99,0.9,0.0001
1601,0.323277086019516,0.4128605127334595,0.99,0.9,0.0001
1602,0.3232842683792114,0.41277584433555603,0.99,0.9,0.0001
1603,0.32327666878700256,0.4126494526863098,0.99,0.9,0.0001
1604,0.3232790231704712,0.41259220242500305,0.99,0.9,0.0001
1605,0.32327723503112793,0.4125523865222931,0.99,0.9,0.0001
1606,0.32327815890312195,0.41254833340644836,0.99,0.9,0.0001
1607,0.323281466960907,0.41253557801246643,0.99,0.9,0.0001
1608,0.3232799470424652,0.4125292897224426,0.99,0.9,0.0001
1609,0.32327789068222046,0.41259264945983887,0.99,0.9,0.0001
1610,0.3232824206352234,0.41264793276786804,0.99,0.9,0.0001
1611,0.32327961921691895,0.41270092129707336,0.99,0.9,0.0001
1612,0.32328179478645325,0.41273048520088196,0.99,0.9,0.0001
1613,0.3232782781124115,0.4127711355686188,0.99,0.9,0.0001
1614,0.32327911257743835,0.4127686619758606,0.99,0.9,0.0001
1615,0.32327935099601746,0.41283807158470154,0.99,0.9,0.0001
1616,0.3232780396938324,0.41285011172294617,0.99,0.9,0.0001
1617,0.32327812910079956,0.41287559270858765,0.99,0.9,0.0001
1618,0.3232775032520294,0.4129244089126587,0.99,0.9,0.0001
1619,0.3232802450656891,0.4129689931869507,0.99,0.9,0.0001
1620,0.3232785165309906,0.4130299389362335,0.99,0.9,0.0001
1621,0.3232799768447876,0.41306072473526,0.99,0.9,0.0001
1622,0.32327941060066223,0.4130319654941559,0.99,0.9,0.0001
1623,0.3232822120189667,0.4130236804485321,0.99,0.9,0.0001
1624,0.32328060269355774,0.4129893183708191,0.99,0.9,0.0001
1625,0.32328006625175476,0.41295501589775085,0.99,0.9,0.0001
1626,0.32327812910079956,0.41292572021484375,0.99,0.9,0.0001
1627,0.32328087091445923,0.4129059612751007,0.99,0.9,0.0001
1628,0.3232788145542145,0.41283535957336426,0.99,0.9,0.0001
1629,0.32327911257743835,0.41281935572624207,0.99,0.9,0.0001
1630,0.3232822120189667,0.4127427339553833,0.99,0.9,0.0001
1631,0.32328030467033386,0.4127581715583801,0.99,0.9,0.0001
1632,0.32328131794929504,0.41272345185279846,0.99,0.9,0.0001
1633,0.3232816457748413,0.4127204418182373,0.99,0.9,0.0001
1634,0.32327818870544434,0.4127500057220459,0.99,0.9,0.0001
1635,0.323278546333313,0.41269516944885254,0.99,0.9,0.0001
1636,0.3232780694961548,0.41264083981513977,0.99,0.9,0.0001
1637,0.3232787251472473,0.4125764071941376,0.99,0.9,0.0001
1638,0.32327941060066223,0.4125564992427826,0.99,0.9,0.0001
1639,0.3232784569263458,0.41256508231163025,0.99,0.9,0.0001
1640,0.3232784569263458,0.41253525018692017,0.99,0.9,0.0001
1641,0.32327982783317566,0.41255587339401245,0.99,0.9,0.0001
1642,0.32327643036842346,0.41265231370925903,0.99,0.9,0.0001
1643,0.3232790231704712,0.41266971826553345,0.99,0.9,0.0001
1644,0.3232783079147339,0.41269317269325256,0.99,0.9,0.0001
1645,0.3232801556587219,0.41266700625419617,0.99,0.9,0.0001
1646,0.32327648997306824,0.41272950172424316,0.99,0.9,0.0001
1647,0.32327818870544434,0.4127984642982483,0.99,0.9,0.0001
1648,0.32327771186828613,0.41286852955818176,0.99,0.9,0.0001
1649,0.3232799768447876,0.4128718972206116,0.99,0.9,0.0001
1650,0.3232799172401428,0.4128873944282532,0.99,0.9,0.0001
1651,0.32328200340270996,0.41276177763938904,0.99,0.9,0.0001
1652,0.32327935099601746,0.4127296805381775,0.99,0.9,0.0001
1653,0.3232806324958801,0.4126768112182617,0.99,0.9,0.0001
1654,0.3232797682285309,0.41262489557266235,0.99,0.9,0.0001
1655,0.32327818870544434,0.41255444288253784,0.99,0.9,0.0001
1656,0.3232788145542145,0.412485808134079,0.99,0.9,0.0001
1657,0.32327839732170105,0.4124743342399597,0.99,0.9,0.0001
1658,0.3232788145542145,0.4124736785888672,0.99,0.9,0.0001
1659,0.32327693700790405,0.41253581643104553,0.99,0.9,0.0001
1660,0.32328158617019653,0.412522554397583,0.99,0.9,0.0001
1661,0.32327893376350403,0.41253188252449036,0.99,0.9,0.0001
1662,0.3232804238796234,0.41251152753829956,0.99,0.9,0.0001
1663,0.3232811391353607,0.4124826490879059,0.99,0.9,0.0001
1664,0.32327908277511597,0.41246986389160156,0.99,0.9,0.0001
1665,0.32328131794929504,0.412512868642807,0.99,0.9,0.0001
1666,0.3232782781124115,0.412541002035141,0.99,0.9,0.0001
1667,0.3232773244380951,0.41259780526161194,0.99,0.9,0.0001
1668,0.32327938079833984,0.4126649498939514,0.99,0.9,0.0001
1669,0.3232784569263458,0.4127280116081238,0.99,0.9,0.0001
1670,0.3232762813568115,0.41284725069999695,0.99,0.9,0.0001
1671,0.32327884435653687,0.41286975145339966,0.99,0.9,0.0001
1672,0.3232789933681488,0.41288551688194275,0.99,0.9,0.0001
1673,0.32327625155448914,0.41298189759254456,0.99,0.9,0.0001
1674,0.323278546333313,0.4130180776119232,0.99,0.9,0.0001
1675,0.3232807517051697,0.41304492950439453,0.99,0.9,0.0001
1676,0.32328200340270996,0.4130343496799469,0.99,0.9,0.0001
1677,0.32327938079833984,0.41304874420166016,0.99,0.9,0.0001
1678,0.32328155636787415,0.4130879342556,0.99,0.9,0.0001
1679,0.32327914237976074,0.4131039083003998,0.99,0.9,0.0001
1680,0.3232775926589966,0.4131307303905487,0.99,0.9,0.0001
1681,0.3232797682285309,0.4131582975387573,0.99,0.9,0.0001
1682,0.3232773542404175,0.41319864988327026,0.99,0.9,0.0001
1683,0.3232778310775757,0.41320693492889404,0.99,0.9,0.0001
1684,0.3232777714729309,0.4132366478443146,0.99,0.9,0.0001
1685,0.3232786953449249,0.41329488158226013,0.99,0.9,0.0001
1686,0.32327979803085327,0.41326266527175903,0.99,0.9,0.0001
1687,0.32327648997306824,0.4133114218711853,0.99,0.9,0.0001
1688,0.32327941060066223,0.41329219937324524,0.99,0.9,0.0001
1689,0.3232766091823578,0.41331177949905396,0.99,0.9,0.0001
1690,0.32327982783317566,0.4133087992668152,0.99,0.9,0.0001
1691,0.3232767581939697,0.4133225381374359,0.99,0.9,0.0001
1692,0.3232782781124115,0.41337624192237854,0.99,0.9,0.0001
1693,0.323277086019516,0.41340598464012146,0.99,0.89,0.0001
1694,0.32327622175216675,0.4134448766708374,0.99,0.89,0.0001
1695,0.3232825994491577,0.413466215133667,0.99,0.89,0.0001
1696,0.3232795298099518,0.4134277403354645,0.99,0.89,0.0001
1697,0.32327982783317566,0.4134085774421692,0.99,0.89,0.0001
1698,0.3232770562171936,0.41337352991104126,0.99,0.89,0.0001
1699,0.3232772946357727,0.4133671522140503,0.99,0.89,0.0001
1700,0.32327800989151,0.4133579730987549,0.99,0.89,0.0001
1701,0.3232785165309906,0.4133658707141876,0.99,0.89,0.0001
1702,0.32327842712402344,0.4133562743663788,0.99,0.89,0.0001
1703,0.3232809901237488,0.41333702206611633,0.99,0.89,0.0001
1704,0.32328006625175476,0.413292795419693,0.99,0.89,0.0001
1705,0.3232786953449249,0.4132840633392334,0.99,0.89,0.0001
1706,0.3232792317867279,0.41322895884513855,0.99,0.9,0.0001
1707,0.3232766389846802,0.41318079829216003,0.99,0.9,0.0001
1708,0.3232783079147339,0.4131551682949066,0.99,0.9,0.0001
1709,0.3232807219028473,0.4131259024143219,0.99,0.9,0.0001
1710,0.32327800989151,0.41308867931365967,0.99,0.9,0.0001
1711,0.3232790231704712,0.4130677878856659,0.99,0.9,0.0001
1712,0.3232755959033966,0.41303908824920654,0.99,0.9,0.0001
1713,0.32327696681022644,0.41302940249443054,0.99,0.9,0.0001
1714,0.3232789933681488,0.4130193293094635,0.99,0.9,0.0001
1715,0.32327744364738464,0.4129524230957031,0.99,0.9,0.0001
1716,0.32327887415885925,0.41290482878685,0.99,0.9,0.0001
1717,0.3232792615890503,0.41284552216529846,0.99,0.9,0.0001
1718,0.3232777416706085,0.41280919313430786,0.99,0.9,0.0001
1719,0.32327982783317566,0.412765234708786,0.99,0.9,0.0001
1720,0.32327765226364136,0.41270843148231506,0.99,0.9,0.0001
1721,0.32327955961227417,0.412715345621109,0.99,0.9,0.0001
1722,0.32328009605407715,0.41267815232276917,0.99,0.9,0.0001
1723,0.3232797682285309,0.41263893246650696,0.99,0.9,0.0001
1724,0.32327720522880554,0.4126178026199341,0.99,0.9,0.0001
1725,0.3232783079147339,0.4126555919647217,0.99,0.9,0.0001
1726,0.32327789068222046,0.4126794934272766,0.99,0.9,0.0001
1727,0.32327765226364136,0.41271817684173584,0.99,0.9,0.0001
1728,0.32327786087989807,0.4127548635005951,0.99,0.9,0.0001
1729,0.32327800989151,0.4127674102783203,0.99,0.9,0.0001
1730,0.3232823312282562,0.4127841591835022,0.99,0.9,0.0001
1731,0.3232758045196533,0.4128715991973877,0.99,0.9,0.0001
1732,0.3232777416706085,0.41291749477386475,0.99,0.9,0.0001
1733,0.3232775628566742,0.41298553347587585,0.99,0.9,0.0001
1734,0.3232763409614563,0.41307732462882996,0.99,0.9,0.0001
1735,0.3232788145542145,0.4131487011909485,0.99,0.9,0.0001
1736,0.3232779800891876,0.41328513622283936,0.99,0.9,0.0001
1737,0.3232826292514801,0.41338813304901123,0.99,0.9,0.0001
1738,0.3232777416706085,0.41355636715888977,0.99,0.9,0.0001
1739,0.3232775926589966,0.41367432475090027,0.99,0.9,0.0001
1740,0.32327789068222046,0.41376936435699463,0.99,0.9,0.0001
1741,0.32327800989151,0.4138650596141815,0.99,0.9,0.0001
1742,0.32327860593795776,0.4139181077480316,0.99,0.9,0.0001
1743,0.32327941060066223,0.4140205383300781,0.99,0.9,0.0001
1744,0.3232785761356354,0.41408810019493103,0.99,0.9,0.0001
1745,0.32327666878700256,0.4141177237033844,0.99,0.9,0.0001
1746,0.32327529788017273,0.41416341066360474,0.99,0.9,0.0001
1747,0.323276549577713,0.4142487049102783,0.99,0.9,0.0001
1748,0.32327744364738464,0.4143235683441162,0.99,0.9,0.0001
1749,0.3232783079147339,0.4143527150154114,0.99,0.9,0.0001
1750,0.32327800989151,0.41438472270965576,0.99,0.9,0.0001
1751,0.3232773244380951,0.4144578278064728,0.99,0.9,0.0001
1752,0.3232770264148712,0.41447845101356506,0.99,0.9,0.0001
1753,0.323277086019516,0.414524644613266,0.99,0.9,0.0001
1754,0.32328179478645325,0.4144574701786041,0.99,0.9,0.0001
1755,0.32327666878700256,0.41443145275115967,0.99,0.9,0.0001
1756,0.3232773244380951,0.41436073184013367,0.99,0.9,0.0001
1757,0.32327908277511597,0.4143325090408325,0.99,0.9,0.0001
1758,0.32328084111213684,0.4142831861972809,0.99,0.9,0.0001
1759,0.3232771158218384,0.41424304246902466,0.99,0.9,0.0001
1760,0.3232788145542145,0.41421985626220703,0.99,0.9,0.0001
1761,0.32327786087989807,0.4141877293586731,0.99,0.9,0.0001
1762,0.32327815890312195,0.414152055978775,0.99,0.9,0.0001
1763,0.32327839732170105,0.4140375256538391,0.99,0.9,0.0001
1764,0.32327473163604736,0.41400864720344543,0.99,0.9,0.0001
1765,0.32327747344970703,0.4139963984489441,0.99,0.9,0.0001
1766,0.3232782483100891,0.41398483514785767,0.99,0.9,0.0001
1767,0.32327860593795776,0.41395390033721924,0.99,0.9,0.0001
1768,0.3232770562171936,0.4139392077922821,0.99,0.9,0.0001
