,train loss,val loss,train acc,val acc,lr
0,0.6361662745475769,0.6493569016456604,0.69,0.64,0.001
1,0.5738989114761353,0.600598156452179,0.73,0.66,0.001
2,0.54644376039505,0.5799176692962646,0.81,0.68,0.001
3,0.5330427289009094,0.5646278858184814,0.8,0.74,0.001
4,0.5201051235198975,0.5584475994110107,0.81,0.77,0.001
5,0.515752911567688,0.5517272353172302,0.8,0.77,0.001
6,0.5069639086723328,0.5476750731468201,0.8,0.77,0.001
7,0.5016032457351685,0.5442865490913391,0.82,0.77,0.001
8,0.49671730399131775,0.5401670336723328,0.82,0.76,0.001
9,0.491354763507843,0.5362551808357239,0.81,0.76,0.001
10,0.4833592474460602,0.5315359830856323,0.84,0.75,0.001
11,0.47738128900527954,0.5266723036766052,0.85,0.76,0.001
12,0.4729299545288086,0.5215280652046204,0.87,0.75,0.001
13,0.4699374735355377,0.5166489481925964,0.87,0.75,0.001
14,0.46441879868507385,0.5127273201942444,0.88,0.76,0.001
15,0.45806658267974854,0.5093262195587158,0.88,0.78,0.001
16,0.45289257168769836,0.5062416195869446,0.9,0.79,0.001
17,0.4464403986930847,0.5035218000411987,0.91,0.8,0.001
18,0.4407426416873932,0.5009447336196899,0.9,0.8,0.001
19,0.4399700164794922,0.4985921084880829,0.9,0.8,0.001
20,0.43406757712364197,0.49736130237579346,0.92,0.8,0.001
21,0.4299907982349396,0.49555572867393494,0.92,0.8,0.001
22,0.4217105209827423,0.49219998717308044,0.92,0.8,0.001
23,0.4182959496974945,0.491712749004364,0.91,0.81,0.001
24,0.416157990694046,0.4913922846317291,0.94,0.81,0.001
25,0.40945136547088623,0.48860159516334534,0.95,0.81,0.001
26,0.4063296616077423,0.48495715856552124,0.96,0.82,0.001
27,0.40138378739356995,0.48371684551239014,0.96,0.84,0.001
28,0.3971607983112335,0.48147475719451904,0.96,0.83,0.001
29,0.3901205062866211,0.47811469435691833,0.96,0.84,0.001
30,0.3905929923057556,0.4724069833755493,0.96,0.85,0.001
31,0.38483867049217224,0.4681505262851715,0.96,0.85,0.001
32,0.37875330448150635,0.47018885612487793,0.96,0.84,0.001
33,0.38037949800491333,0.46737778186798096,0.96,0.84,0.001
34,0.3721064031124115,0.46318548917770386,0.96,0.87,0.001
35,0.37327873706817627,0.46328938007354736,0.96,0.85,0.001
36,0.36665698885917664,0.4675437808036804,0.97,0.85,0.001
37,0.36615216732025146,0.4633042812347412,0.97,0.87,0.001
38,0.36489540338516235,0.46000710129737854,0.96,0.82,0.001
39,0.36289745569229126,0.5026127099990845,0.97,0.77,0.001
40,0.35831356048583984,0.4525575339794159,0.98,0.87,0.001
41,0.3548751473426819,0.4651873707771301,0.98,0.86,0.001
42,0.35306212306022644,0.4620857238769531,0.98,0.85,0.001
43,0.3546674847602844,0.47618117928504944,0.98,0.85,0.001
44,0.35116472840309143,0.4495185613632202,0.98,0.84,0.001
45,0.3495766520500183,0.452905535697937,0.98,0.85,0.001
46,0.3451554477214813,0.4523199498653412,0.98,0.86,0.001
47,0.34455734491348267,0.4533293843269348,0.98,0.85,0.001
48,0.341149240732193,0.45397818088531494,0.99,0.85,0.001
49,0.34017929434776306,0.46202293038368225,0.99,0.85,0.001
50,0.33989059925079346,0.4591083228588104,0.99,0.87,0.001
51,0.3394114673137665,0.4580340087413788,0.99,0.86,0.001
52,0.34063199162483215,0.5343649387359619,0.99,0.77,0.001
53,0.34484755992889404,0.4630281329154968,0.98,0.86,0.001
54,0.34265419840812683,0.5421587228775024,0.98,0.73,0.001
55,0.3377254605293274,0.5886827707290649,0.99,0.69,0.001
56,0.3453432321548462,0.4454032778739929,0.99,0.88,0.001
57,0.3379186689853668,0.44503241777420044,0.99,0.88,0.001
58,0.3395617604255676,0.4393109977245331,0.98,0.88,0.001
59,0.338799387216568,0.4534088969230652,0.99,0.85,0.001
60,0.33504918217658997,0.4555479884147644,0.99,0.87,0.001
61,0.3384418189525604,0.4875578284263611,0.99,0.81,0.001
62,0.3337306082248688,0.4627383053302765,0.99,0.84,0.001
63,0.33463627099990845,0.44977810978889465,0.99,0.87,0.001
64,0.3318651616573334,0.4465629458427429,0.99,0.87,0.001
65,0.3329415023326874,0.4502289593219757,0.99,0.86,0.001
66,0.33124199509620667,0.44780242443084717,0.99,0.87,0.001
67,0.3303714692592621,0.43969112634658813,0.99,0.86,0.001
68,0.3300594091415405,0.4375491440296173,0.99,0.87,0.001
69,0.32876479625701904,0.43822434544563293,0.99,0.85,0.001
70,0.32901930809020996,0.4389979839324951,0.99,0.86,0.001
71,0.3282034397125244,0.43917518854141235,0.99,0.87,0.001
72,0.3262723982334137,0.4352574646472931,0.99,0.89,0.001
73,0.32612621784210205,0.43750596046447754,0.99,0.87,0.001
74,0.32462334632873535,0.4685821533203125,1.0,0.83,0.001
75,0.3236887753009796,0.4611024558544159,1.0,0.84,0.001
76,0.3221362829208374,0.4356728792190552,1.0,0.88,0.001
77,0.3221377432346344,0.4319967031478882,1.0,0.89,0.001
78,0.32069262862205505,0.4323878586292267,1.0,0.88,0.001
79,0.31969189643859863,0.4330357313156128,1.0,0.88,0.001
80,0.3192650079727173,0.4478912353515625,1.0,0.86,0.001
81,0.3194250762462616,0.4576756954193115,1.0,0.85,0.001
82,0.31895238161087036,0.43270501494407654,1.0,0.87,0.001
83,0.3186210095882416,0.42985111474990845,1.0,0.87,0.001
84,0.3176288306713104,0.4254375696182251,1.0,0.9,0.001
85,0.31769007444381714,0.4420539140701294,1.0,0.88,0.001
86,0.31794512271881104,0.42958125472068787,1.0,0.88,0.001
87,0.3170109987258911,0.4299211800098419,1.0,0.89,0.001
88,0.31682440638542175,0.4325809180736542,1.0,0.88,0.001
89,0.3166085481643677,0.4333561062812805,1.0,0.88,0.001
90,0.3164248764514923,0.4312370717525482,1.0,0.87,0.001
91,0.3162715435028076,0.4279402792453766,1.0,0.9,0.001
92,0.3162464499473572,0.42786774039268494,1.0,0.89,0.001
93,0.3155125379562378,0.42774754762649536,1.0,0.89,0.001
94,0.3157309591770172,0.44629502296447754,1.0,0.87,0.001
95,0.31577998399734497,0.4501217007637024,1.0,0.87,0.001
96,0.31549474596977234,0.4294893741607666,1.0,0.88,0.001
97,0.3153083920478821,0.42551806569099426,1.0,0.88,0.001
98,0.315361350774765,0.42821094393730164,1.0,0.88,0.001
99,0.3152291476726532,0.4304959774017334,1.0,0.87,0.001
100,0.31506824493408203,0.43697860836982727,1.0,0.88,0.001
101,0.3150542378425598,0.44350048899650574,1.0,0.87,0.001
102,0.3151722848415375,0.43541789054870605,1.0,0.87,0.001
103,0.31472039222717285,0.43022850155830383,1.0,0.89,0.001
104,0.3147053122520447,0.42688408493995667,1.0,0.89,0.001
105,0.3148488402366638,0.4321136474609375,1.0,0.89,0.001
106,0.314894437789917,0.4348827004432678,1.0,0.89,0.001
107,0.31459394097328186,0.43335768580436707,1.0,0.88,0.001
108,0.3145129084587097,0.43243369460105896,1.0,0.87,0.001
109,0.3144512176513672,0.43488267064094543,1.0,0.88,0.001
110,0.3144313395023346,0.4352891147136688,1.0,0.87,0.001
111,0.31461101770401,0.43551087379455566,1.0,0.87,0.001
112,0.31441500782966614,0.4379500448703766,1.0,0.87,0.001
113,0.31448227167129517,0.44356200098991394,1.0,0.87,0.001
114,0.3145790994167328,0.44014689326286316,1.0,0.87,0.001
115,0.31449422240257263,0.4357439875602722,1.0,0.87,0.001
116,0.3143293857574463,0.43487367033958435,1.0,0.86,0.001
117,0.31429630517959595,0.433034747838974,1.0,0.87,0.001
118,0.3144361078739166,0.42996761202812195,1.0,0.88,0.001
119,0.3142085373401642,0.4308410882949829,1.0,0.89,0.001
120,0.31435778737068176,0.432341068983078,1.0,0.88,0.001
121,0.3142881393432617,0.4328140914440155,1.0,0.88,0.001
122,0.31419453024864197,0.43018853664398193,1.0,0.87,0.001
123,0.3141404986381531,0.42969876527786255,1.0,0.88,0.001
124,0.31403160095214844,0.42998242378234863,1.0,0.88,0.001
125,0.3142631947994232,0.42959117889404297,1.0,0.88,0.001
126,0.31414666771888733,0.4291606843471527,1.0,0.88,0.001
127,0.31417739391326904,0.4325595200061798,1.0,0.87,0.001
128,0.3140832185745239,0.4351237118244171,1.0,0.88,0.001
129,0.3140876889228821,0.43522918224334717,1.0,0.87,0.001
130,0.3140975832939148,0.4324827194213867,1.0,0.88,0.001
131,0.31401509046554565,0.43076416850090027,1.0,0.88,0.001
132,0.31397438049316406,0.4291926324367523,1.0,0.88,0.001
133,0.314103364944458,0.4290214776992798,1.0,0.88,0.001
134,0.3139910101890564,0.43010416626930237,1.0,0.88,0.001
135,0.31400787830352783,0.4329821467399597,1.0,0.88,0.001
136,0.31394779682159424,0.43378838896751404,1.0,0.89,0.001
137,0.3139193058013916,0.4340256452560425,1.0,0.89,0.001
138,0.31408393383026123,0.4310643672943115,1.0,0.88,0.001
139,0.3139417767524719,0.42952948808670044,1.0,0.88,0.001
140,0.3139065206050873,0.42809784412384033,1.0,0.88,0.001
141,0.31400755047798157,0.4292415976524353,1.0,0.88,0.001
142,0.31427502632141113,0.43074798583984375,1.0,0.88,0.001
143,0.31406325101852417,0.4327583312988281,1.0,0.88,0.001
144,0.3139845132827759,0.4359196126461029,1.0,0.89,0.001
145,0.31393617391586304,0.43607625365257263,1.0,0.88,0.001
146,0.31390300393104553,0.4339005649089813,1.0,0.88,0.001
147,0.3140002489089966,0.4323030412197113,1.0,0.89,0.001
148,0.3138484060764313,0.4320620000362396,1.0,0.88,0.001
149,0.313945472240448,0.42941153049468994,1.0,0.88,0.001
150,0.31388694047927856,0.4290327727794647,1.0,0.88,0.001
151,0.3139565587043762,0.43299415707588196,1.0,0.88,0.001
152,0.31383734941482544,0.43568846583366394,1.0,0.88,0.001
153,0.31390851736068726,0.43608421087265015,1.0,0.85,0.001
154,0.3137706518173218,0.4359879195690155,1.0,0.87,0.001
155,0.31383001804351807,0.434103399515152,1.0,0.87,0.001
156,0.3139493465423584,0.4320477247238159,1.0,0.89,0.001
157,0.3137614130973816,0.43042486906051636,1.0,0.88,0.001
158,0.31382906436920166,0.4320637881755829,1.0,0.88,0.001
159,0.31386253237724304,0.43330371379852295,1.0,0.88,0.001
160,0.31377410888671875,0.4335601329803467,1.0,0.88,0.001
161,0.3137344717979431,0.432911217212677,1.0,0.87,0.001
162,0.31376516819000244,0.4315599799156189,1.0,0.88,0.001
163,0.31393906474113464,0.4280800223350525,1.0,0.88,0.001
164,0.31375813484191895,0.42666637897491455,1.0,0.88,0.001
165,0.3138175904750824,0.43061134219169617,1.0,0.88,0.001
166,0.31378212571144104,0.4372440278530121,1.0,0.89,0.001
167,0.31378886103630066,0.43849942088127136,1.0,0.88,0.001
168,0.3137681484222412,0.4382838308811188,1.0,0.86,0.001
169,0.3137788474559784,0.4369751214981079,1.0,0.87,0.001
170,0.3137345016002655,0.43619999289512634,1.0,0.88,0.001
171,0.31376704573631287,0.4338833689689636,1.0,0.88,0.001
172,0.31376513838768005,0.4306676387786865,1.0,0.88,0.001
173,0.3137774169445038,0.43165481090545654,1.0,0.88,0.001
174,0.31369858980178833,0.4339638948440552,1.0,0.88,0.001
175,0.31369566917419434,0.43381890654563904,1.0,0.88,0.001
176,0.3136967420578003,0.4339657127857208,1.0,0.87,0.001
177,0.31370261311531067,0.4334549605846405,1.0,0.87,0.001
178,0.31370842456817627,0.4325898289680481,1.0,0.87,0.001
179,0.3137062191963196,0.43188077211380005,1.0,0.88,0.001
180,0.31373581290245056,0.43270257115364075,1.0,0.88,0.001
181,0.31369125843048096,0.4355640411376953,1.0,0.89,0.001
182,0.3137610852718353,0.4393336772918701,1.0,0.86,0.001
183,0.3136776089668274,0.43813008069992065,1.0,0.87,0.001
184,0.3136984705924988,0.43506091833114624,1.0,0.88,0.001
185,0.3137491047382355,0.43304717540740967,1.0,0.89,0.001
186,0.31363919377326965,0.431244432926178,1.0,0.88,0.001
187,0.3136937618255615,0.43042007088661194,1.0,0.88,0.001
188,0.31364840269088745,0.4321082830429077,1.0,0.88,0.001
189,0.3136425316333771,0.43515342473983765,1.0,0.87,0.001
190,0.31362006068229675,0.4360595643520355,1.0,0.87,0.001
191,0.31360191106796265,0.4354483485221863,1.0,0.86,0.001
192,0.3136683404445648,0.43436965346336365,1.0,0.87,0.001
193,0.3136238157749176,0.433318555355072,1.0,0.88,0.001
194,0.31365710496902466,0.43232986330986023,1.0,0.88,0.001
195,0.3136882781982422,0.42998260259628296,1.0,0.88,0.001
196,0.3136363923549652,0.42970696091651917,1.0,0.88,0.001
197,0.3136194944381714,0.4311671853065491,1.0,0.88,0.001
198,0.3136347830295563,0.43343961238861084,1.0,0.88,0.001
199,0.3136131763458252,0.43550220131874084,1.0,0.88,0.001
200,0.3136654198169708,0.43719372153282166,1.0,0.87,0.001
201,0.3136727511882782,0.43755024671554565,1.0,0.87,0.001
202,0.3135932981967926,0.43684834241867065,1.0,0.87,0.001
203,0.31358054280281067,0.4350259304046631,1.0,0.87,0.001
204,0.31380605697631836,0.43073418736457825,1.0,0.89,0.001
205,0.31364765763282776,0.43180400133132935,1.0,0.88,0.001
206,0.31366562843322754,0.4415363073348999,1.0,0.87,0.001
207,0.31377002596855164,0.4494526982307434,1.0,0.86,0.001
208,0.31365156173706055,0.44086819887161255,1.0,0.86,0.001
209,0.3137027621269226,0.43910229206085205,1.0,0.87,0.001
210,0.3136521279811859,0.44079089164733887,1.0,0.87,0.001
211,0.31360921263694763,0.44059649109840393,1.0,0.86,0.001
212,0.3136214017868042,0.43532612919807434,1.0,0.88,0.001
213,0.31362810730934143,0.4313826262950897,1.0,0.89,0.001
214,0.31363704800605774,0.43313896656036377,1.0,0.88,0.001
215,0.31360119581222534,0.4390684962272644,1.0,0.87,0.001
216,0.3135747015476227,0.44034844636917114,1.0,0.87,0.001
217,0.31357821822166443,0.4402899146080017,1.0,0.87,0.001
218,0.31361639499664307,0.43889471888542175,1.0,0.87,0.001
219,0.31360089778900146,0.4369824230670929,1.0,0.88,0.001
220,0.31361591815948486,0.43497511744499207,1.0,0.88,0.001
221,0.3136036992073059,0.4341157078742981,1.0,0.88,0.001
222,0.313556432723999,0.4346756339073181,1.0,0.88,0.001
223,0.3135280907154083,0.4363991618156433,1.0,0.87,0.001
224,0.31356850266456604,0.43955543637275696,1.0,0.87,0.001
225,0.3135283887386322,0.4412599503993988,1.0,0.87,0.001
226,0.3135969638824463,0.4400213360786438,1.0,0.87,0.001
227,0.3135499060153961,0.4373124837875366,1.0,0.87,0.001
228,0.3135925233364105,0.4338759183883667,1.0,0.87,0.001
229,0.3135336637496948,0.43183913826942444,1.0,0.88,0.001
230,0.31355637311935425,0.43163275718688965,1.0,0.88,0.001
231,0.31354326009750366,0.43126556277275085,1.0,0.88,0.001
232,0.3135521113872528,0.4320460259914398,1.0,0.88,0.001
233,0.3135661482810974,0.4339095950126648,1.0,0.87,0.001
234,0.31355398893356323,0.4344571828842163,1.0,0.88,0.001
235,0.31353285908699036,0.43466171622276306,1.0,0.88,0.001
236,0.3135400712490082,0.43497562408447266,1.0,0.87,0.001
237,0.3135111927986145,0.4355922341346741,1.0,0.88,0.001
238,0.31350770592689514,0.43637436628341675,1.0,0.88,0.001
239,0.313518226146698,0.43867477774620056,1.0,0.88,0.001
240,0.3135374188423157,0.44244158267974854,1.0,0.86,0.001
241,0.3135317862033844,0.4415651559829712,1.0,0.84,0.001
242,0.3135856091976166,0.4392894506454468,1.0,0.87,0.001
243,0.3135484755039215,0.4381405711174011,1.0,0.87,0.001
244,0.3135317862033844,0.4374719560146332,1.0,0.87,0.001
245,0.3134901523590088,0.43626612424850464,1.0,0.87,0.001
246,0.31349122524261475,0.43471693992614746,1.0,0.87,0.001
247,0.31354179978370667,0.43323764204978943,1.0,0.88,0.001
248,0.31354063749313354,0.43356427550315857,1.0,0.88,0.001
249,0.31350985169410706,0.4333944320678711,1.0,0.88,0.001
250,0.3134738802909851,0.4331328570842743,1.0,0.88,0.001
251,0.31348609924316406,0.4330359697341919,1.0,0.88,0.001
252,0.3134949505329132,0.4322858154773712,1.0,0.88,0.001
253,0.3135083317756653,0.4316054880619049,1.0,0.88,0.001
254,0.31350812315940857,0.4327317476272583,1.0,0.88,0.001
255,0.313483327627182,0.4324968755245209,1.0,0.88,0.001
256,0.31350013613700867,0.4319519102573395,1.0,0.88,0.001
257,0.31347575783729553,0.4329720437526703,1.0,0.88,0.001
258,0.3134768307209015,0.43441712856292725,1.0,0.88,0.001
259,0.31350526213645935,0.4354862570762634,1.0,0.88,0.001
260,0.3134945034980774,0.4363447427749634,1.0,0.88,0.001
261,0.3134635090827942,0.43818381428718567,1.0,0.88,0.001
262,0.31347644329071045,0.43836700916290283,1.0,0.88,0.001
263,0.3134801387786865,0.43870609998703003,1.0,0.88,0.001
264,0.3134641647338867,0.4380224943161011,1.0,0.88,0.001
265,0.31343919038772583,0.4377498924732208,1.0,0.88,0.001
266,0.31345105171203613,0.43700316548347473,1.0,0.88,0.001
267,0.31346550583839417,0.4361128509044647,1.0,0.88,0.001
268,0.31346595287323,0.43635040521621704,1.0,0.88,0.001
269,0.31345871090888977,0.4370063841342926,1.0,0.88,0.001
270,0.313490629196167,0.43783921003341675,1.0,0.87,0.001
271,0.3134688436985016,0.4385986328125,1.0,0.87,0.001
272,0.3134756088256836,0.4380103349685669,1.0,0.87,0.001
273,0.3134714961051941,0.436692476272583,1.0,0.88,0.001
274,0.31348714232444763,0.43545815348625183,1.0,0.88,0.001
275,0.31347423791885376,0.43536168336868286,1.0,0.88,0.001
276,0.31343895196914673,0.4356488883495331,1.0,0.88,0.001
277,0.3134802281856537,0.4367069602012634,1.0,0.87,0.001
278,0.3134303390979767,0.4368740916252136,1.0,0.87,0.001
279,0.3134889602661133,0.43786534667015076,1.0,0.87,0.001
280,0.3134784698486328,0.43727967143058777,1.0,0.88,0.001
281,0.31348082423210144,0.43823668360710144,1.0,0.87,0.001
282,0.3134278357028961,0.4388832151889801,1.0,0.87,0.001
283,0.31342095136642456,0.43902355432510376,1.0,0.87,0.001
284,0.31343021988868713,0.4386882483959198,1.0,0.87,0.001
285,0.3134545087814331,0.43831562995910645,1.0,0.87,0.001
286,0.3134292662143707,0.43845054507255554,1.0,0.88,0.001
287,0.31343770027160645,0.43998977541923523,1.0,0.87,0.001
288,0.31343981623649597,0.4422949552536011,1.0,0.85,0.001
289,0.31344157457351685,0.4412127733230591,1.0,0.86,0.001
290,0.31342944502830505,0.4391363859176636,1.0,0.87,0.001
291,0.31348472833633423,0.4385773539543152,1.0,0.88,0.001
292,0.3134596347808838,0.43770915269851685,1.0,0.87,0.001
293,0.3134167492389679,0.43769022822380066,1.0,0.87,0.001
294,0.31342941522598267,0.4375288784503937,1.0,0.87,0.001
295,0.3134378492832184,0.4375591278076172,1.0,0.87,0.001
296,0.3134763240814209,0.4385741353034973,1.0,0.87,0.001
297,0.31341448426246643,0.4406067132949829,1.0,0.86,0.001
298,0.31342536211013794,0.44159817695617676,1.0,0.86,0.001
299,0.31340453028678894,0.4419627785682678,1.0,0.86,0.001
300,0.3134705126285553,0.43941637873649597,1.0,0.87,0.001
301,0.313423216342926,0.437200129032135,1.0,0.87,0.001
302,0.3134431540966034,0.43745216727256775,1.0,0.87,0.001
303,0.31344565749168396,0.4377877414226532,1.0,0.87,0.001
304,0.3134205639362335,0.43752655386924744,1.0,0.87,0.001
305,0.31342825293540955,0.438195139169693,1.0,0.88,0.001
306,0.3134150207042694,0.43967941403388977,1.0,0.87,0.001
307,0.3134189546108246,0.44093871116638184,1.0,0.87,0.001
308,0.31343188881874084,0.44179463386535645,1.0,0.87,0.001
309,0.31341689825057983,0.44194549322128296,1.0,0.87,0.001
310,0.3133944272994995,0.4411209225654602,1.0,0.87,0.001
311,0.31342071294784546,0.4400084316730499,1.0,0.86,0.001
312,0.313425213098526,0.43938198685646057,1.0,0.87,0.001
313,0.3134385645389557,0.4391154944896698,1.0,0.87,0.001
314,0.31342190504074097,0.4398992657661438,1.0,0.87,0.001
315,0.3134247660636902,0.4388413727283478,1.0,0.87,0.001
316,0.31343746185302734,0.4376705288887024,1.0,0.87,0.001
317,0.3133973479270935,0.4369189143180847,1.0,0.87,0.001
318,0.31341564655303955,0.43647831678390503,1.0,0.87,0.001
319,0.313434898853302,0.43726789951324463,1.0,0.88,0.001
320,0.31342414021492004,0.4382360577583313,1.0,0.88,0.001
321,0.31342217326164246,0.4409642815589905,1.0,0.86,0.001
322,0.3134041726589203,0.443007230758667,1.0,0.86,0.001
323,0.31340447068214417,0.44575822353363037,1.0,0.86,0.001
324,0.3133906424045563,0.44763144850730896,1.0,0.86,0.001
325,0.3134213387966156,0.4468614161014557,1.0,0.86,0.001
326,0.31340938806533813,0.4454694092273712,1.0,0.86,0.001
327,0.3134258985519409,0.44370025396347046,1.0,0.86,0.001
328,0.31340569257736206,0.4419689178466797,1.0,0.86,0.001
329,0.31339964270591736,0.43994635343551636,1.0,0.87,0.001
330,0.31340283155441284,0.4396611750125885,1.0,0.87,0.001
331,0.3133928179740906,0.43958476185798645,1.0,0.87,0.001
332,0.3134106695652008,0.4393121302127838,1.0,0.87,0.001
333,0.3134002983570099,0.4392256438732147,1.0,0.87,0.001
334,0.3134184777736664,0.4390698969364166,1.0,0.87,0.001
335,0.31339457631111145,0.4388793110847473,1.0,0.87,0.001
336,0.3134028911590576,0.4381771981716156,1.0,0.87,0.001
337,0.313398540019989,0.4375086724758148,1.0,0.87,0.001
338,0.3134084641933441,0.438216894865036,1.0,0.87,0.001
339,0.31338074803352356,0.4399421811103821,1.0,0.87,0.001
340,0.3133851885795593,0.44274985790252686,1.0,0.87,0.001
341,0.3133911192417145,0.4456646740436554,1.0,0.86,0.001
342,0.31339505314826965,0.44575414061546326,1.0,0.85,0.001
343,0.31339797377586365,0.44560906291007996,1.0,0.85,0.001
344,0.31339213252067566,0.44499585032463074,1.0,0.85,0.001
345,0.31339022517204285,0.44378891587257385,1.0,0.85,0.001
346,0.3133980631828308,0.4415939450263977,1.0,0.86,0.001
347,0.3134184181690216,0.43948590755462646,1.0,0.87,0.001
348,0.313394695520401,0.43836861848831177,1.0,0.87,0.001
349,0.3133755922317505,0.438574880361557,1.0,0.87,0.001
350,0.31340450048446655,0.43922218680381775,1.0,0.87,0.001
351,0.3133816719055176,0.4406377375125885,1.0,0.86,0.001
352,0.31337103247642517,0.44237208366394043,1.0,0.86,0.001
353,0.3134773373603821,0.4433444142341614,1.0,0.86,0.001
354,0.31337204575538635,0.44374561309814453,1.0,0.86,0.001
355,0.31337571144104004,0.4437193274497986,1.0,0.86,0.001
356,0.31339505314826965,0.4425143301486969,1.0,0.86,0.001
357,0.3133707344532013,0.4421943724155426,1.0,0.86,0.001
358,0.313394159078598,0.4426758885383606,1.0,0.86,0.001
359,0.31338539719581604,0.44386279582977295,1.0,0.85,0.001
360,0.3133889436721802,0.44473350048065186,1.0,0.85,0.001
361,0.3133966624736786,0.4461154043674469,1.0,0.85,0.001
362,0.3133816421031952,0.4474698305130005,1.0,0.85,0.001
363,0.31341880559921265,0.4414091110229492,1.0,0.86,0.001
364,0.3133999705314636,0.4378577172756195,1.0,0.87,0.001
365,0.3133949339389801,0.4379548728466034,1.0,0.87,0.001
366,0.3133874833583832,0.4392520785331726,1.0,0.86,0.001
367,0.31339922547340393,0.44079872965812683,1.0,0.86,0.001
368,0.3133768141269684,0.4418456554412842,1.0,0.86,0.001
369,0.31340134143829346,0.4432089328765869,1.0,0.86,0.001
370,0.3133834898471832,0.4445044994354248,1.0,0.86,0.001
371,0.31338387727737427,0.4436018466949463,1.0,0.86,0.001
372,0.3134065568447113,0.44386473298072815,1.0,0.86,0.001
373,0.3133750557899475,0.44372737407684326,1.0,0.86,0.001
374,0.31336548924446106,0.44471022486686707,1.0,0.86,0.001
375,0.31338098645210266,0.44571390748023987,1.0,0.86,0.001
376,0.3133772909641266,0.4456401467323303,1.0,0.86,0.001
377,0.31339532136917114,0.44122081995010376,1.0,0.87,0.001
378,0.31336861848831177,0.439042329788208,1.0,0.87,0.001
379,0.31339579820632935,0.43791329860687256,1.0,0.87,0.001
380,0.31338539719581604,0.43885472416877747,1.0,0.87,0.001
381,0.3134041726589203,0.44330936670303345,1.0,0.86,0.001
382,0.3133811354637146,0.4465188682079315,1.0,0.86,0.001
383,0.3133775591850281,0.4483702480792999,1.0,0.86,0.001
384,0.3133891522884369,0.4468054473400116,1.0,0.86,0.001
385,0.3133677542209625,0.44419899582862854,1.0,0.86,0.001
386,0.3133911192417145,0.441598504781723,1.0,0.86,0.001
387,0.31338220834732056,0.4390394687652588,1.0,0.86,0.001
388,0.3133867084980011,0.4388546645641327,1.0,0.87,0.001
389,0.31337568163871765,0.4389035701751709,1.0,0.86,0.001
390,0.31336086988449097,0.439387708902359,1.0,0.85,0.001
391,0.3133828639984131,0.4411391317844391,1.0,0.86,0.001
392,0.3133748769760132,0.4432286322116852,1.0,0.85,0.001
393,0.313364177942276,0.4447380304336548,1.0,0.86,0.001
394,0.3133660554885864,0.4450576901435852,1.0,0.86,0.001
395,0.31335344910621643,0.4444170892238617,1.0,0.86,0.001
396,0.31335020065307617,0.443461537361145,1.0,0.86,0.001
397,0.31335756182670593,0.4431360960006714,1.0,0.86,0.001
398,0.313360333442688,0.4442666172981262,1.0,0.86,0.001
399,0.3133752942085266,0.44648101925849915,1.0,0.85,0.001
400,0.3133859932422638,0.44872361421585083,1.0,0.85,0.001
401,0.31335902214050293,0.44832801818847656,1.0,0.85,0.001
402,0.3133624792098999,0.4470754861831665,1.0,0.85,0.001
403,0.3133549392223358,0.44358497858047485,1.0,0.86,0.001
404,0.3133707046508789,0.44056761264801025,1.0,0.86,0.001
405,0.3133583962917328,0.43896543979644775,1.0,0.87,0.001
406,0.3133583664894104,0.43881702423095703,1.0,0.87,0.001
407,0.31335166096687317,0.4400045871734619,1.0,0.86,0.001
408,0.3133554756641388,0.44214576482772827,1.0,0.86,0.001
409,0.3133682906627655,0.44583621621131897,1.0,0.86,0.001
410,0.3133467733860016,0.4484180510044098,1.0,0.85,0.001
411,0.31336089968681335,0.45046573877334595,1.0,0.85,0.001
412,0.3133567273616791,0.4488849341869354,1.0,0.84,0.001
413,0.31335216760635376,0.4471801817417145,1.0,0.85,0.001
414,0.31335747241973877,0.4449746608734131,1.0,0.86,0.001
415,0.31336215138435364,0.4438874125480652,1.0,0.86,0.001
416,0.31336501240730286,0.44518470764160156,1.0,0.86,0.001
417,0.3133520483970642,0.44595202803611755,1.0,0.86,0.001
418,0.3133443593978882,0.4471835792064667,1.0,0.86,0.001
419,0.31334391236305237,0.4479408264160156,1.0,0.86,0.001
420,0.3133564293384552,0.4486958980560303,1.0,0.86,0.001
421,0.31334686279296875,0.44943875074386597,1.0,0.86,0.001
422,0.3133385181427002,0.44954630732536316,1.0,0.86,0.001
423,0.3133452534675598,0.4500323235988617,1.0,0.85,0.001
424,0.31334057450294495,0.44982993602752686,1.0,0.85,0.001
425,0.31334295868873596,0.4496338665485382,1.0,0.85,0.001
426,0.31333789229393005,0.44915008544921875,1.0,0.84,0.001
427,0.31334468722343445,0.4494558572769165,1.0,0.84,0.001
428,0.3133501410484314,0.44961872696876526,1.0,0.84,0.001
429,0.31335774064064026,0.4492588937282562,1.0,0.84,0.001
430,0.3133763074874878,0.4500710964202881,1.0,0.85,0.001
431,0.3133469521999359,0.4506477117538452,1.0,0.85,0.001
432,0.3133352994918823,0.44996678829193115,1.0,0.85,0.001
433,0.3133413791656494,0.4494398236274719,1.0,0.85,0.001
434,0.31333866715431213,0.4483844041824341,1.0,0.86,0.001
435,0.3133322596549988,0.4480980932712555,1.0,0.86,0.001
436,0.31336018443107605,0.4465195834636688,1.0,0.86,0.001
437,0.3133448660373688,0.4475766122341156,1.0,0.86,0.001
438,0.3133510947227478,0.44934794306755066,1.0,0.84,0.001
439,0.31333863735198975,0.4519718289375305,1.0,0.85,0.001
440,0.3133607804775238,0.45737019181251526,1.0,0.85,0.001
441,0.3133569657802582,0.45719489455223083,1.0,0.84,0.001
442,0.31337299942970276,0.451862096786499,1.0,0.85,0.001
443,0.31334012746810913,0.44697105884552,1.0,0.87,0.001
444,0.3133458197116852,0.44348421692848206,1.0,0.87,0.001
445,0.3133736848831177,0.4410976767539978,1.0,0.87,0.001
446,0.31333670020103455,0.44157639145851135,1.0,0.86,0.001
447,0.31336021423339844,0.4471426010131836,1.0,0.86,0.001
448,0.3133624196052551,0.4554266035556793,1.0,0.85,0.001
449,0.3133544921875,0.45723605155944824,1.0,0.85,0.001
450,0.3133414089679718,0.4567587673664093,1.0,0.84,0.001
451,0.3133542239665985,0.45374923944473267,1.0,0.84,0.001
452,0.31337597966194153,0.4467446506023407,1.0,0.87,0.001
453,0.31333863735198975,0.4439730942249298,1.0,0.87,0.001
454,0.31334730982780457,0.4426928758621216,1.0,0.86,0.001
455,0.3133493661880493,0.4451603293418884,1.0,0.86,0.001
456,0.3133299648761749,0.4508424699306488,1.0,0.85,0.001
457,0.3133421838283539,0.4553035497665405,1.0,0.86,0.001
458,0.31333836913108826,0.45728057622909546,1.0,0.85,0.001
459,0.31336066126823425,0.45232903957366943,1.0,0.84,0.001
460,0.31335073709487915,0.44336146116256714,1.0,0.87,0.001
461,0.3133389949798584,0.4402288496494293,1.0,0.87,0.001
462,0.3133705258369446,0.44542598724365234,1.0,0.85,0.001
463,0.31334418058395386,0.45461270213127136,1.0,0.84,0.001
464,0.3133507966995239,0.4576854705810547,1.0,0.85,0.001
465,0.3133377730846405,0.4576225280761719,1.0,0.84,0.001
466,0.3133663535118103,0.4530307352542877,1.0,0.85,0.001
467,0.3133753538131714,0.44404923915863037,1.0,0.86,0.001
468,0.31333115696907043,0.4376530051231384,1.0,0.87,0.001
469,0.31337201595306396,0.43948689103126526,1.0,0.86,0.001
470,0.31334495544433594,0.44493651390075684,1.0,0.86,0.001
471,0.3133432865142822,0.45113906264305115,1.0,0.84,0.001
472,0.3133295476436615,0.4552452564239502,1.0,0.84,0.001
473,0.3133336901664734,0.45580726861953735,1.0,0.84,0.001
474,0.31348368525505066,0.44663673639297485,1.0,0.86,0.001
475,0.32160577178001404,0.6732617020606995,0.99,0.64,0.001
476,0.5568011999130249,0.8346604108810425,0.74,0.45,0.001
477,0.4336772561073303,0.9027949571609497,0.9,0.39,0.001
478,0.45975157618522644,0.5577192902565002,0.84,0.73,0.001
479,0.4610532820224762,0.6719553470611572,0.84,0.64,0.001
480,0.4264709949493408,0.6622345447540283,0.87,0.64,0.001
481,0.4054029881954193,0.6484148502349854,0.92,0.65,0.001
482,0.39331209659576416,0.468959778547287,0.93,0.83,0.001
483,0.3887692391872406,0.4696838855743408,0.96,0.83,0.001
484,0.3923884332180023,0.47654953598976135,0.94,0.82,0.001
485,0.3905107080936432,0.46807408332824707,0.95,0.84,0.001
486,0.38283467292785645,0.47811591625213623,0.95,0.81,0.001
487,0.3749629259109497,0.48822855949401855,0.97,0.82,0.001
488,0.36856669187545776,0.48453372716903687,0.96,0.83,0.001
489,0.3663714528083801,0.47403576970100403,0.97,0.83,0.001
490,0.3598003089427948,0.46112969517707825,0.98,0.84,0.001
491,0.35464638471603394,0.45724910497665405,0.98,0.88,0.001
492,0.35136401653289795,0.46104538440704346,0.98,0.86,0.001
493,0.3497338891029358,0.46801871061325073,0.98,0.84,0.001
494,0.344033807516098,0.4709627628326416,0.98,0.85,0.001
495,0.34212157130241394,0.4710133671760559,0.98,0.85,0.001
496,0.33836689591407776,0.4706234633922577,0.99,0.84,0.001
497,0.33751538395881653,0.47081848978996277,0.99,0.83,0.001
498,0.33530306816101074,0.467800110578537,0.99,0.84,0.001
499,0.33440709114074707,0.4669213593006134,0.99,0.85,0.001
500,0.3319847583770752,0.46390804648399353,0.99,0.86,0.001
501,0.33055728673934937,0.46411198377609253,1.0,0.85,0.001
502,0.32759249210357666,0.4650425314903259,1.0,0.84,0.001
503,0.3259633779525757,0.4521866738796234,1.0,0.87,0.001
504,0.32592377066612244,0.4465165436267853,1.0,0.87,0.001
505,0.3242403268814087,0.4559141993522644,1.0,0.85,0.001
506,0.32373446226119995,0.4577958583831787,1.0,0.85,0.001
507,0.32175037264823914,0.45242393016815186,1.0,0.86,0.001
508,0.3201032280921936,0.44602471590042114,1.0,0.86,0.001
509,0.3209523856639862,0.44560620188713074,1.0,0.86,0.001
510,0.31943371891975403,0.4470614492893219,1.0,0.86,0.001
511,0.3183755576610565,0.447285532951355,1.0,0.87,0.001
512,0.31836751103401184,0.44593292474746704,1.0,0.86,0.001
513,0.3174700140953064,0.44280722737312317,1.0,0.86,0.001
514,0.3172650933265686,0.4419562816619873,1.0,0.85,0.001
515,0.31680428981781006,0.44216418266296387,1.0,0.87,0.001
516,0.31626439094543457,0.4427015781402588,1.0,0.87,0.001
517,0.31622257828712463,0.4417058825492859,1.0,0.87,0.001
518,0.3159097731113434,0.43990558385849,1.0,0.88,0.001
519,0.3158107101917267,0.4395862817764282,1.0,0.87,0.001
520,0.3155806064605713,0.4389978051185608,1.0,0.87,0.001
521,0.3153551518917084,0.438975989818573,1.0,0.87,0.001
522,0.31518837809562683,0.4386892020702362,1.0,0.88,0.001
523,0.31503069400787354,0.4387020766735077,1.0,0.88,0.0007937005259840996
524,0.3149220645427704,0.4386119544506073,1.0,0.88,0.0007937005259840996
525,0.3149608075618744,0.43844208121299744,1.0,0.88,0.0007937005259840996
526,0.3147364556789398,0.4384129047393799,1.0,0.88,0.0007937005259840996
527,0.31467321515083313,0.4383326768875122,1.0,0.88,0.0007937005259840996
528,0.31454166769981384,0.4380923807621002,1.0,0.88,0.0007937005259840996
529,0.3145521879196167,0.43776825070381165,1.0,0.88,0.0007937005259840996
530,0.31442829966545105,0.4374050498008728,1.0,0.88,0.0007937005259840996
531,0.3143840432167053,0.43690600991249084,1.0,0.88,0.0007937005259840996
532,0.31436535716056824,0.4363119900226593,1.0,0.88,0.0007937005259840996
533,0.31427493691444397,0.43591952323913574,1.0,0.88,0.0007937005259840996
534,0.314251184463501,0.4354652166366577,1.0,0.88,0.0007937005259840996
535,0.3142350912094116,0.43509766459465027,1.0,0.88,0.0007937005259840996
536,0.31417688727378845,0.4350501298904419,1.0,0.88,0.0007937005259840996
537,0.3141537308692932,0.4348686933517456,1.0,0.88,0.0007937005259840996
538,0.314100056886673,0.43484875559806824,1.0,0.88,0.0007937005259840996
539,0.3140382468700409,0.43479397892951965,1.0,0.88,0.0007937005259840996
540,0.31403475999832153,0.43477538228034973,1.0,0.88,0.0007937005259840996
541,0.3140392005443573,0.4349112808704376,1.0,0.88,0.0007937005259840996
542,0.3140299916267395,0.4348571300506592,1.0,0.88,0.0007937005259840996
543,0.31399810314178467,0.4348986744880676,1.0,0.88,0.0007937005259840996
544,0.31394755840301514,0.4348362982273102,1.0,0.88,0.0007937005259840996
545,0.31396403908729553,0.4347298741340637,1.0,0.88,0.0007937005259840996
546,0.3139123022556305,0.4347296953201294,1.0,0.88,0.0007937005259840996
547,0.3139282763004303,0.434783935546875,1.0,0.88,0.0007937005259840996
548,0.31390446424484253,0.43483108282089233,1.0,0.88,0.0007937005259840996
549,0.31393110752105713,0.4347158670425415,1.0,0.88,0.0007937005259840996
550,0.3139152526855469,0.4346470534801483,1.0,0.88,0.0007937005259840996
551,0.3138195276260376,0.43457818031311035,1.0,0.88,0.0007937005259840996
552,0.3138548731803894,0.4344843327999115,1.0,0.88,0.0007937005259840996
553,0.31382977962493896,0.43439459800720215,1.0,0.88,0.0007937005259840996
554,0.31380701065063477,0.4343245327472687,1.0,0.88,0.0007937005259840996
555,0.3138137757778168,0.4342368245124817,1.0,0.88,0.0007937005259840996
556,0.31376734375953674,0.4341626763343811,1.0,0.88,0.0007937005259840996
557,0.31378525495529175,0.43405652046203613,1.0,0.88,0.0007937005259840996
558,0.3137701153755188,0.43401986360549927,1.0,0.88,0.0007937005259840996
559,0.3137582540512085,0.4339982271194458,1.0,0.88,0.0007937005259840996
560,0.31377336382865906,0.43390557169914246,1.0,0.88,0.0007937005259840996
561,0.3137471675872803,0.4338623881340027,1.0,0.88,0.0007937005259840996
562,0.31375157833099365,0.4337918162345886,1.0,0.88,0.0007937005259840996
563,0.31372568011283875,0.43375924229621887,1.0,0.88,0.0007937005259840996
564,0.3137191832065582,0.43362367153167725,1.0,0.89,0.0007937005259840996
565,0.31372809410095215,0.433598130941391,1.0,0.89,0.0007937005259840996
566,0.31370410323143005,0.4335022270679474,1.0,0.89,0.0007937005259840996
567,0.313734233379364,0.43339869379997253,1.0,0.89,0.0007937005259840996
568,0.3137154281139374,0.4333539605140686,1.0,0.89,0.0007937005259840996
569,0.3137171268463135,0.4333599805831909,1.0,0.89,0.0007937005259840996
570,0.3137049973011017,0.43327581882476807,1.0,0.89,0.0007937005259840996
571,0.31368136405944824,0.43323078751564026,1.0,0.89,0.0007937005259840996
572,0.313673734664917,0.43312445282936096,1.0,0.89,0.0007937005259840996
573,0.31368181109428406,0.4329933524131775,1.0,0.89,0.0007937005259840996
574,0.3136664927005768,0.432891309261322,1.0,0.89,0.0007937005259840996
575,0.31368306279182434,0.4328559637069702,1.0,0.89,0.0007937005259840996
576,0.313676118850708,0.4327611029148102,1.0,0.89,0.0007937005259840996
577,0.3136567175388336,0.43269243836402893,1.0,0.89,0.0007937005259840996
578,0.31365200877189636,0.4326663911342621,1.0,0.89,0.0007937005259840996
579,0.313660591840744,0.4326595067977905,1.0,0.89,0.0007937005259840996
580,0.31363239884376526,0.4327205419540405,1.0,0.89,0.0007937005259840996
581,0.31364479660987854,0.4327177107334137,1.0,0.89,0.0007937005259840996
582,0.31363606452941895,0.43282949924468994,1.0,0.89,0.0007937005259840996
583,0.31363654136657715,0.43297281861305237,1.0,0.89,0.0007937005259840996
584,0.3136342763900757,0.4330408573150635,1.0,0.89,0.0007937005259840996
585,0.3136317729949951,0.43312278389930725,1.0,0.89,0.0007937005259840996
586,0.3136029541492462,0.43303191661834717,1.0,0.89,0.0007937005259840996
587,0.31361839175224304,0.43289604783058167,1.0,0.89,0.0007937005259840996
588,0.3136231303215027,0.43268248438835144,1.0,0.89,0.0007937005259840996
589,0.3136155903339386,0.432557612657547,1.0,0.89,0.0007937005259840996
590,0.31359732151031494,0.4324006736278534,1.0,0.89,0.0007937005259840996
591,0.31359511613845825,0.4323495030403137,1.0,0.89,0.0007937005259840996
592,0.313607394695282,0.43228691816329956,1.0,0.89,0.0007937005259840996
593,0.31360429525375366,0.4322483539581299,1.0,0.89,0.0007937005259840996
594,0.3136005103588104,0.4322289526462555,1.0,0.89,0.0007937005259840996
595,0.31358802318573,0.43231308460235596,1.0,0.89,0.0007937005259840996
596,0.3136133551597595,0.4323728084564209,1.0,0.89,0.0007937005259840996
597,0.31359100341796875,0.4324500262737274,1.0,0.89,0.0007937005259840996
598,0.31359726190567017,0.43250325322151184,1.0,0.89,0.0007937005259840996
599,0.31358614563941956,0.432444304227829,1.0,0.89,0.0007937005259840996
600,0.31359636783599854,0.4323517978191376,1.0,0.89,0.0007937005259840996
601,0.3135678470134735,0.4323166608810425,1.0,0.89,0.0007937005259840996
602,0.3135885000228882,0.4323016405105591,1.0,0.89,0.0007937005259840996
603,0.3135685622692108,0.43233731389045715,1.0,0.89,0.0007937005259840996
604,0.31357109546661377,0.43240517377853394,1.0,0.89,0.0007937005259840996
605,0.3135615885257721,0.43242791295051575,1.0,0.89,0.0007937005259840996
606,0.31356045603752136,0.4324486553668976,1.0,0.89,0.0007937005259840996
607,0.313549280166626,0.43247947096824646,1.0,0.89,0.0007937005259840996
608,0.3135659992694855,0.4324886202812195,1.0,0.89,0.0007937005259840996
609,0.31355035305023193,0.43245112895965576,1.0,0.89,0.0007937005259840996
610,0.3135599195957184,0.43245887756347656,1.0,0.89,0.0007937005259840996
611,0.3135654330253601,0.43245929479599,1.0,0.89,0.0007937005259840996
612,0.3135397434234619,0.43240079283714294,1.0,0.89,0.0007937005259840996
613,0.313548743724823,0.4323946237564087,1.0,0.89,0.0007937005259840996
614,0.313539057970047,0.4323820471763611,1.0,0.89,0.0007937005259840996
615,0.3135374188423157,0.43243294954299927,1.0,0.89,0.0007937005259840996
616,0.3135424852371216,0.4324398934841156,1.0,0.89,0.0007937005259840996
617,0.31353798508644104,0.4324553608894348,1.0,0.89,0.0007937005259840996
618,0.31353092193603516,0.43257084488868713,1.0,0.89,0.0007937005259840996
619,0.31353306770324707,0.4326154291629791,1.0,0.89,0.0007937005259840996
620,0.3135336637496948,0.432623028755188,1.0,0.89,0.0007937005259840996
621,0.31352782249450684,0.4325706958770752,1.0,0.89,0.0007937005259840996
622,0.3135279715061188,0.43259212374687195,1.0,0.89,0.0007937005259840996
623,0.3135101795196533,0.43253377079963684,1.0,0.89,0.0007937005259840996
624,0.31352463364601135,0.43246883153915405,1.0,0.89,0.0006299605249474364
625,0.31352707743644714,0.43230941891670227,1.0,0.89,0.0006299605249474364
626,0.3135402202606201,0.4322386085987091,1.0,0.89,0.0006299605249474364
627,0.3135281503200531,0.43221256136894226,1.0,0.89,0.0006299605249474364
628,0.31351691484451294,0.43216410279273987,1.0,0.89,0.0006299605249474364
629,0.31351494789123535,0.4321630895137787,1.0,0.89,0.0006299605249474364
630,0.313509076833725,0.43221354484558105,1.0,0.89,0.0006299605249474364
631,0.31352531909942627,0.4322013556957245,1.0,0.89,0.0006299605249474364
632,0.3135232627391815,0.4322762191295624,1.0,0.89,0.0006299605249474364
633,0.3135189712047577,0.43231433629989624,1.0,0.89,0.0006299605249474364
634,0.3135184347629547,0.432257741689682,1.0,0.89,0.0006299605249474364
635,0.3135041892528534,0.4322720468044281,1.0,0.89,0.0006299605249474364
636,0.31351637840270996,0.43223580718040466,1.0,0.89,0.0006299605249474364
637,0.31350505352020264,0.4322027564048767,1.0,0.89,0.0006299605249474364
638,0.3135041296482086,0.43220415711402893,1.0,0.89,0.0006299605249474364
639,0.3135025203227997,0.4321669638156891,1.0,0.89,0.0006299605249474364
640,0.31350934505462646,0.43209362030029297,1.0,0.89,0.0006299605249474364
641,0.3135058581829071,0.4321559965610504,1.0,0.89,0.0006299605249474364
642,0.313493549823761,0.4321158230304718,1.0,0.89,0.0006299605249474364
643,0.31350022554397583,0.43213367462158203,1.0,0.89,0.0006299605249474364
644,0.3134957551956177,0.4321499168872833,1.0,0.89,0.0006299605249474364
645,0.31350386142730713,0.4321707785129547,1.0,0.89,0.0006299605249474364
646,0.3135084807872772,0.4321165978908539,1.0,0.89,0.0006299605249474364
647,0.31350409984588623,0.4321950078010559,1.0,0.89,0.0006299605249474364
648,0.31349116563796997,0.43218353390693665,1.0,0.89,0.0006299605249474364
649,0.3134946823120117,0.43216025829315186,1.0,0.89,0.0006299605249474364
650,0.3135022222995758,0.43215426802635193,1.0,0.89,0.0006299605249474364
651,0.3134878873825073,0.4321037232875824,1.0,0.89,0.0006299605249474364
652,0.31347817182540894,0.4320725202560425,1.0,0.89,0.0006299605249474364
653,0.3134974539279938,0.43206650018692017,1.0,0.89,0.0006299605249474364
654,0.31349292397499084,0.43202513456344604,1.0,0.89,0.0006299605249474364
655,0.3134782314300537,0.431977778673172,1.0,0.89,0.0006299605249474364
656,0.3134903609752655,0.43197181820869446,1.0,0.89,0.0006299605249474364
657,0.3134922385215759,0.43197041749954224,1.0,0.89,0.0006299605249474364
658,0.3134772479534149,0.4319796860218048,1.0,0.89,0.0006299605249474364
659,0.3134821057319641,0.43201881647109985,1.0,0.89,0.0006299605249474364
660,0.3134709298610687,0.4320569932460785,1.0,0.89,0.0006299605249474364
661,0.31348907947540283,0.4320678412914276,1.0,0.89,0.0006299605249474364
662,0.31348294019699097,0.43208298087120056,1.0,0.89,0.0006299605249474364
663,0.313486248254776,0.43210673332214355,1.0,0.89,0.0006299605249474364
664,0.31347379088401794,0.4321414828300476,1.0,0.89,0.0006299605249474364
665,0.31347543001174927,0.43215250968933105,1.0,0.89,0.0006299605249474364
666,0.31348666548728943,0.43219566345214844,1.0,0.89,0.0006299605249474364
667,0.3134908974170685,0.43214869499206543,1.0,0.89,0.0006299605249474364
668,0.31347498297691345,0.4320679008960724,1.0,0.89,0.0006299605249474364
669,0.3134835958480835,0.43210235238075256,1.0,0.89,0.0006299605249474364
670,0.31347328424453735,0.43204569816589355,1.0,0.89,0.0006299605249474364
671,0.3134831488132477,0.43203791975975037,1.0,0.89,0.0006299605249474364
672,0.31347301602363586,0.4320072531700134,1.0,0.89,0.0006299605249474364
673,0.31346938014030457,0.4319867789745331,1.0,0.89,0.0006299605249474364
674,0.3134698271751404,0.4319581687450409,1.0,0.89,0.0006299605249474364
675,0.31347551941871643,0.43194785714149475,1.0,0.89,0.0006299605249474364
676,0.3134721517562866,0.43193691968917847,1.0,0.89,0.0006299605249474364
677,0.3134755790233612,0.43200749158859253,1.0,0.89,0.0006299605249474364
678,0.31346890330314636,0.431980162858963,1.0,0.89,0.0006299605249474364
679,0.31346720457077026,0.4320176839828491,1.0,0.89,0.0006299605249474364
680,0.31346186995506287,0.4319714605808258,1.0,0.89,0.0006299605249474364
681,0.31346380710601807,0.4320070147514343,1.0,0.89,0.0006299605249474364
682,0.3134740889072418,0.43201541900634766,1.0,0.89,0.0006299605249474364
683,0.31345969438552856,0.4319670796394348,1.0,0.89,0.0006299605249474364
684,0.3134545385837555,0.43194901943206787,1.0,0.89,0.0006299605249474364
685,0.3134579360485077,0.4319789409637451,1.0,0.89,0.0006299605249474364
686,0.3134552240371704,0.43199145793914795,1.0,0.89,0.0006299605249474364
687,0.3134600520133972,0.4320183992385864,1.0,0.89,0.0006299605249474364
688,0.31346595287323,0.4320984184741974,1.0,0.89,0.0006299605249474364
689,0.31345823407173157,0.4321809709072113,1.0,0.89,0.0006299605249474364
690,0.3134656846523285,0.43217313289642334,1.0,0.89,0.0006299605249474364
691,0.31345295906066895,0.43218451738357544,1.0,0.89,0.0006299605249474364
692,0.31345194578170776,0.43212711811065674,1.0,0.89,0.0006299605249474364
693,0.3134465515613556,0.4321041405200958,1.0,0.89,0.0006299605249474364
694,0.313448965549469,0.4320516884326935,1.0,0.89,0.0006299605249474364
695,0.3134501278400421,0.4320570230484009,1.0,0.89,0.0006299605249474364
696,0.3134475648403168,0.4320109486579895,1.0,0.89,0.0006299605249474364
697,0.31346237659454346,0.4319307208061218,1.0,0.89,0.0006299605249474364
698,0.3134438395500183,0.4319034516811371,1.0,0.89,0.0006299605249474364
699,0.313449889421463,0.43186742067337036,1.0,0.89,0.0006299605249474364
700,0.3134448528289795,0.43191173672676086,1.0,0.89,0.0006299605249474364
701,0.31344398856163025,0.43190518021583557,1.0,0.89,0.0006299605249474364
702,0.31343716382980347,0.4319339096546173,1.0,0.89,0.0006299605249474364
703,0.3134443461894989,0.43196502327919006,1.0,0.89,0.0006299605249474364
704,0.31343963742256165,0.43194380402565,1.0,0.89,0.0006299605249474364
705,0.31344151496887207,0.4319259226322174,1.0,0.89,0.0006299605249474364
706,0.31344249844551086,0.4318748712539673,1.0,0.89,0.0006299605249474364
707,0.31343212723731995,0.43181395530700684,1.0,0.89,0.0006299605249474364
708,0.31343668699264526,0.43174508213996887,1.0,0.89,0.0006299605249474364
709,0.31344109773635864,0.431695818901062,1.0,0.89,0.0006299605249474364
710,0.31344833970069885,0.4316987693309784,1.0,0.89,0.0006299605249474364
711,0.31343716382980347,0.43168678879737854,1.0,0.89,0.0006299605249474364
712,0.3134400546550751,0.4316975474357605,1.0,0.89,0.0006299605249474364
713,0.313443660736084,0.43170782923698425,1.0,0.89,0.0006299605249474364
714,0.31343600153923035,0.4317725896835327,1.0,0.89,0.0006299605249474364
715,0.3134423494338989,0.4318218231201172,1.0,0.89,0.0006299605249474364
716,0.31344443559646606,0.43183982372283936,1.0,0.89,0.0006299605249474364
717,0.31343886256217957,0.43183231353759766,1.0,0.89,0.0006299605249474364
718,0.31343215703964233,0.4317722022533417,1.0,0.89,0.0006299605249474364
719,0.3134276270866394,0.43174195289611816,1.0,0.89,0.0006299605249474364
720,0.3134303390979767,0.43173304200172424,1.0,0.89,0.0006299605249474364
721,0.31342613697052,0.43173301219940186,1.0,0.89,0.0006299605249474364
722,0.31343474984169006,0.4316956400871277,1.0,0.89,0.0006299605249474364
723,0.3134312927722931,0.43167513608932495,1.0,0.89,0.0006299605249474364
724,0.31342813372612,0.43165719509124756,1.0,0.89,0.0006299605249474364
725,0.3134336471557617,0.43166103959083557,1.0,0.89,0.0004999999999999997
726,0.31342068314552307,0.4316677749156952,1.0,0.89,0.0004999999999999997
727,0.3134225904941559,0.4316645860671997,1.0,0.89,0.0004999999999999997
728,0.3134292662143707,0.4316752552986145,1.0,0.89,0.0004999999999999997
729,0.31342971324920654,0.43173643946647644,1.0,0.89,0.0004999999999999997
730,0.3134225308895111,0.43177077174186707,1.0,0.89,0.0004999999999999997
731,0.31343257427215576,0.4318181276321411,1.0,0.89,0.0004999999999999997
732,0.3134247064590454,0.4318547546863556,1.0,0.89,0.0004999999999999997
733,0.31342828273773193,0.4318862855434418,1.0,0.89,0.0004999999999999997
734,0.3134308159351349,0.4319021999835968,1.0,0.89,0.0004999999999999997
735,0.31342074275016785,0.43191736936569214,1.0,0.89,0.0004999999999999997
736,0.3134193420410156,0.4319005608558655,1.0,0.89,0.0004999999999999997
737,0.31343066692352295,0.43186327815055847,1.0,0.89,0.0004999999999999997
738,0.31341350078582764,0.43187132477760315,1.0,0.89,0.0004999999999999997
739,0.31341469287872314,0.43181803822517395,1.0,0.89,0.0004999999999999997
740,0.31343352794647217,0.43176326155662537,1.0,0.89,0.0004999999999999997
741,0.31342366337776184,0.43174517154693604,1.0,0.89,0.0004999999999999997
742,0.3134160339832306,0.43174707889556885,1.0,0.89,0.0004999999999999997
743,0.31342509388923645,0.43177253007888794,1.0,0.89,0.0004999999999999997
744,0.31341487169265747,0.4318154454231262,1.0,0.89,0.0004999999999999997
745,0.3134268522262573,0.43182483315467834,1.0,0.89,0.0004999999999999997
746,0.31342005729675293,0.4318685531616211,1.0,0.89,0.0004999999999999997
747,0.31341496109962463,0.43188586831092834,1.0,0.89,0.0004999999999999997
748,0.31342247128486633,0.4319155812263489,1.0,0.89,0.0004999999999999997
749,0.31341975927352905,0.4318747818470001,1.0,0.89,0.0004999999999999997
750,0.31341588497161865,0.431869238615036,1.0,0.89,0.0004999999999999997
751,0.31342053413391113,0.4318470358848572,1.0,0.89,0.0004999999999999997
752,0.3134172260761261,0.4318036139011383,1.0,0.89,0.0004999999999999997
753,0.3134206533432007,0.431795209646225,1.0,0.89,0.0004999999999999997
754,0.313418984413147,0.43181321024894714,1.0,0.89,0.0004999999999999997
755,0.31341445446014404,0.431804895401001,1.0,0.89,0.0004999999999999997
756,0.3134174048900604,0.4317573308944702,1.0,0.89,0.0004999999999999997
757,0.3134136199951172,0.4317716956138611,1.0,0.89,0.0004999999999999997
758,0.31340983510017395,0.43178725242614746,1.0,0.89,0.0004999999999999997
759,0.31341227889060974,0.431794673204422,1.0,0.89,0.0004999999999999997
760,0.3134170472621918,0.43182438611984253,1.0,0.89,0.0004999999999999997
761,0.31341439485549927,0.4318396747112274,1.0,0.89,0.0004999999999999997
762,0.31341299414634705,0.4318121671676636,1.0,0.89,0.0004999999999999997
763,0.31341055035591125,0.4318082332611084,1.0,0.89,0.0004999999999999997
764,0.31341591477394104,0.4318079650402069,1.0,0.89,0.0004999999999999997
765,0.31341466307640076,0.4318198263645172,1.0,0.89,0.0004999999999999997
766,0.3134080767631531,0.4318716526031494,1.0,0.89,0.0004999999999999997
767,0.31341275572776794,0.43189680576324463,1.0,0.89,0.0004999999999999997
768,0.31340309977531433,0.43195873498916626,1.0,0.89,0.0004999999999999997
769,0.3134055435657501,0.43194958567619324,1.0,0.89,0.0004999999999999997
770,0.3134123682975769,0.4320073425769806,1.0,0.89,0.0004999999999999997
771,0.31340813636779785,0.43203485012054443,1.0,0.89,0.0004999999999999997
772,0.3133981227874756,0.4320712983608246,1.0,0.89,0.0004999999999999997
773,0.31340789794921875,0.43211907148361206,1.0,0.89,0.0004999999999999997
774,0.3133977949619293,0.43209898471832275,1.0,0.89,0.0004999999999999997
775,0.31340712308883667,0.43204888701438904,1.0,0.89,0.0004999999999999997
776,0.3134066164493561,0.4320196807384491,1.0,0.89,0.0004999999999999997
777,0.31340351700782776,0.431985080242157,1.0,0.89,0.0004999999999999997
778,0.31340110301971436,0.4319257438182831,1.0,0.89,0.0004999999999999997
779,0.31340354681015015,0.4319170117378235,1.0,0.89,0.0004999999999999997
780,0.31340816617012024,0.43187060952186584,1.0,0.89,0.0004999999999999997
781,0.3134077191352844,0.4318227767944336,1.0,0.89,0.0004999999999999997
782,0.3134058117866516,0.43177321553230286,1.0,0.89,0.0004999999999999997
783,0.31340038776397705,0.43179741501808167,1.0,0.89,0.0004999999999999997
784,0.31340721249580383,0.4318031072616577,1.0,0.89,0.0004999999999999997
785,0.3134045898914337,0.43185293674468994,1.0,0.88,0.0004999999999999997
786,0.3134026527404785,0.43184271454811096,1.0,0.88,0.0004999999999999997
787,0.3133997321128845,0.4318523406982422,1.0,0.88,0.0004999999999999997
788,0.3133997321128845,0.43183574080467224,1.0,0.88,0.0004999999999999997
789,0.31340351700782776,0.43180352449417114,1.0,0.88,0.0004999999999999997
790,0.31340423226356506,0.4317430257797241,1.0,0.89,0.0004999999999999997
791,0.31340041756629944,0.4317529797554016,1.0,0.89,0.0004999999999999997
792,0.31340354681015015,0.4317297637462616,1.0,0.89,0.0004999999999999997
793,0.31340494751930237,0.43179017305374146,1.0,0.89,0.0004999999999999997
794,0.3134024143218994,0.4318108856678009,1.0,0.89,0.0004999999999999997
795,0.31339746713638306,0.43182164430618286,1.0,0.89,0.0004999999999999997
796,0.31340256333351135,0.431844562292099,1.0,0.89,0.0004999999999999997
797,0.3134009838104248,0.4318057894706726,1.0,0.89,0.0004999999999999997
798,0.3133969008922577,0.43181055784225464,1.0,0.89,0.0004999999999999997
799,0.3133971095085144,0.4318159222602844,1.0,0.89,0.0004999999999999997
800,0.31339818239212036,0.4318294823169708,1.0,0.89,0.0004999999999999997
801,0.31340649724006653,0.43185344338417053,1.0,0.89,0.0004999999999999997
802,0.31339484453201294,0.43186259269714355,1.0,0.89,0.0004999999999999997
803,0.31338897347450256,0.4318511188030243,1.0,0.88,0.0004999999999999997
804,0.3133918046951294,0.4318694770336151,1.0,0.88,0.0004999999999999997
805,0.31339529156684875,0.4318394362926483,1.0,0.88,0.0004999999999999997
806,0.31338852643966675,0.4318016767501831,1.0,0.88,0.0004999999999999997
807,0.3133920729160309,0.43177899718284607,1.0,0.89,0.0004999999999999997
808,0.31339147686958313,0.4317726194858551,1.0,0.89,0.0004999999999999997
809,0.3133939504623413,0.43180716037750244,1.0,0.89,0.0004999999999999997
810,0.31339210271835327,0.43181517720222473,1.0,0.89,0.0004999999999999997
811,0.31339144706726074,0.43180862069129944,1.0,0.89,0.0004999999999999997
812,0.3133881092071533,0.43180906772613525,1.0,0.89,0.0004999999999999997
813,0.31340259313583374,0.4317789375782013,1.0,0.89,0.0004999999999999997
814,0.31339043378829956,0.43176504969596863,1.0,0.89,0.0004999999999999997
815,0.31338798999786377,0.4317670166492462,1.0,0.89,0.0004999999999999997
816,0.31338879466056824,0.43173083662986755,1.0,0.89,0.0004999999999999997
817,0.3133927285671234,0.4317292273044586,1.0,0.89,0.0004999999999999997
818,0.31339454650878906,0.4317120313644409,1.0,0.89,0.0004999999999999997
819,0.31339186429977417,0.43170952796936035,1.0,0.89,0.0004999999999999997
820,0.31339016556739807,0.4317094385623932,1.0,0.89,0.0004999999999999997
821,0.3133879005908966,0.43171632289886475,1.0,0.89,0.0004999999999999997
822,0.3133876621723175,0.43169698119163513,1.0,0.88,0.0004999999999999997
823,0.3133902847766876,0.4317050576210022,1.0,0.88,0.0004999999999999997
824,0.3133898377418518,0.4317241609096527,1.0,0.88,0.0004999999999999997
825,0.3133954703807831,0.431721568107605,1.0,0.88,0.0004999999999999997
826,0.31338292360305786,0.43168532848358154,1.0,0.88,0.00039685026299204955
827,0.3133842945098877,0.43167340755462646,1.0,0.88,0.00039685026299204955
828,0.31338900327682495,0.4316880702972412,1.0,0.88,0.00039685026299204955
829,0.31338709592819214,0.4316915273666382,1.0,0.89,0.00039685026299204955
830,0.3133890628814697,0.43172404170036316,1.0,0.89,0.00039685026299204955
831,0.31338319182395935,0.431771844625473,1.0,0.89,0.00039685026299204955
832,0.31338751316070557,0.4317970275878906,1.0,0.89,0.00039685026299204955
833,0.313384085893631,0.4318234920501709,1.0,0.89,0.00039685026299204955
834,0.31338149309158325,0.43183058500289917,1.0,0.89,0.00039685026299204955
835,0.31338292360305786,0.43187251687049866,1.0,0.89,0.00039685026299204955
836,0.3133861720561981,0.4318823516368866,1.0,0.89,0.00039685026299204955
837,0.31338515877723694,0.4318919777870178,1.0,0.89,0.00039685026299204955
838,0.31338220834732056,0.43190997838974,1.0,0.88,0.00039685026299204955
839,0.3133891224861145,0.4318840801715851,1.0,0.89,0.00039685026299204955
840,0.31338679790496826,0.4318731725215912,1.0,0.89,0.00039685026299204955
841,0.313389390707016,0.43187466263771057,1.0,0.89,0.00039685026299204955
842,0.3133808970451355,0.4318958520889282,1.0,0.89,0.00039685026299204955
843,0.3133798837661743,0.43190285563468933,1.0,0.88,0.00039685026299204955
844,0.3133862614631653,0.431891530752182,1.0,0.89,0.00039685026299204955
845,0.3133847713470459,0.43193820118904114,1.0,0.88,0.00039685026299204955
846,0.31338733434677124,0.43190354108810425,1.0,0.89,0.00039685026299204955
847,0.3133852183818817,0.4319216012954712,1.0,0.89,0.00039685026299204955
848,0.3133848309516907,0.43194806575775146,1.0,0.89,0.00039685026299204955
849,0.3133827745914459,0.4319498836994171,1.0,0.89,0.00039685026299204955
850,0.3133848309516907,0.4319532513618469,1.0,0.89,0.00039685026299204955
851,0.3133797347545624,0.4319614768028259,1.0,0.89,0.00039685026299204955
852,0.31338101625442505,0.43200618028640747,1.0,0.89,0.00039685026299204955
853,0.3133854568004608,0.4319959282875061,1.0,0.89,0.00039685026299204955
854,0.313379168510437,0.43200671672821045,1.0,0.89,0.00039685026299204955
855,0.3133845031261444,0.4320436716079712,1.0,0.88,0.00039685026299204955
856,0.31338173151016235,0.43202537298202515,1.0,0.88,0.00039685026299204955
857,0.3133750855922699,0.43201667070388794,1.0,0.88,0.00039685026299204955
858,0.3133796453475952,0.43198898434638977,1.0,0.88,0.00039685026299204955
859,0.3133780062198639,0.4319556951522827,1.0,0.88,0.00039685026299204955
860,0.3133784532546997,0.4319523572921753,1.0,0.88,0.00039685026299204955
861,0.313375324010849,0.4319458305835724,1.0,0.88,0.00039685026299204955
862,0.31337884068489075,0.4319700598716736,1.0,0.88,0.00039685026299204955
863,0.3133739233016968,0.43197008967399597,1.0,0.88,0.00039685026299204955
864,0.3133775293827057,0.43192264437675476,1.0,0.88,0.00039685026299204955
865,0.3133755922317505,0.4319111704826355,1.0,0.88,0.00039685026299204955
866,0.3133767545223236,0.43188104033470154,1.0,0.88,0.00039685026299204955
867,0.3133833408355713,0.4318471848964691,1.0,0.88,0.00039685026299204955
868,0.3133806586265564,0.4318186938762665,1.0,0.88,0.00039685026299204955
869,0.3133790194988251,0.43180179595947266,1.0,0.88,0.00039685026299204955
870,0.3133792281150818,0.431809663772583,1.0,0.88,0.00039685026299204955
871,0.31337642669677734,0.431812584400177,1.0,0.88,0.00039685026299204955
872,0.3133799433708191,0.4318368434906006,1.0,0.88,0.00039685026299204955
873,0.313375860452652,0.431840717792511,1.0,0.88,0.00039685026299204955
874,0.31337735056877136,0.43185490369796753,1.0,0.88,0.00039685026299204955
875,0.3133755624294281,0.4318893551826477,1.0,0.88,0.00039685026299204955
876,0.31337305903434753,0.43190205097198486,1.0,0.88,0.00039685026299204955
877,0.31338080763816833,0.43188655376434326,1.0,0.88,0.00039685026299204955
878,0.31337496638298035,0.431893527507782,1.0,0.88,0.00039685026299204955
879,0.3133796453475952,0.4318573772907257,1.0,0.88,0.00039685026299204955
880,0.3133763074874878,0.4318597912788391,1.0,0.88,0.00039685026299204955
881,0.3133702874183655,0.43183135986328125,1.0,0.88,0.00039685026299204955
882,0.3133714497089386,0.4318145513534546,1.0,0.88,0.00039685026299204955
883,0.31337374448776245,0.43179747462272644,1.0,0.88,0.00039685026299204955
884,0.31336963176727295,0.4317947030067444,1.0,0.88,0.00039685026299204955
885,0.31336596608161926,0.4318634271621704,1.0,0.88,0.00039685026299204955
886,0.3133755624294281,0.4318838119506836,1.0,0.88,0.00039685026299204955
887,0.3133721351623535,0.4319171905517578,1.0,0.88,0.00039685026299204955
888,0.31337273120880127,0.4319378733634949,1.0,0.88,0.00039685026299204955
889,0.31337183713912964,0.43193089962005615,1.0,0.88,0.00039685026299204955
890,0.3133753836154938,0.4319278597831726,1.0,0.88,0.00039685026299204955
891,0.31337448954582214,0.4319123923778534,1.0,0.88,0.00039685026299204955
892,0.3133738040924072,0.43189752101898193,1.0,0.88,0.00039685026299204955
893,0.3133743703365326,0.43191471695899963,1.0,0.88,0.00039685026299204955
894,0.31337153911590576,0.4319666624069214,1.0,0.88,0.00039685026299204955
895,0.31337159872055054,0.4320038855075836,1.0,0.88,0.00039685026299204955
896,0.31336963176727295,0.4320043921470642,1.0,0.88,0.00039685026299204955
897,0.31337231397628784,0.43201273679733276,1.0,0.88,0.00039685026299204955
898,0.3133706748485565,0.4320078194141388,1.0,0.88,0.00039685026299204955
899,0.31337130069732666,0.4319941997528076,1.0,0.88,0.00039685026299204955
900,0.3133750259876251,0.4319729208946228,1.0,0.88,0.00039685026299204955
901,0.31337156891822815,0.4319639205932617,1.0,0.88,0.00039685026299204955
902,0.3133735656738281,0.43198153376579285,1.0,0.88,0.00039685026299204955
903,0.3133695423603058,0.43193793296813965,1.0,0.88,0.00039685026299204955
904,0.31336918473243713,0.43192756175994873,1.0,0.88,0.00039685026299204955
905,0.3133673667907715,0.43190643191337585,1.0,0.88,0.00039685026299204955
906,0.3133693039417267,0.43190938234329224,1.0,0.88,0.00039685026299204955
907,0.3133694529533386,0.4318820536136627,1.0,0.88,0.00039685026299204955
908,0.3133696913719177,0.43188926577568054,1.0,0.88,0.00039685026299204955
909,0.3133668601512909,0.43186062574386597,1.0,0.88,0.00039685026299204955
910,0.3133653700351715,0.4318901300430298,1.0,0.88,0.00039685026299204955
911,0.3133681118488312,0.43191176652908325,1.0,0.88,0.00039685026299204955
912,0.3133685290813446,0.4319225549697876,1.0,0.88,0.00039685026299204955
913,0.31336861848831177,0.4319310486316681,1.0,0.88,0.00039685026299204955
914,0.3133684992790222,0.4319063127040863,1.0,0.88,0.00039685026299204955
915,0.31336846947669983,0.43189483880996704,1.0,0.88,0.00039685026299204955
916,0.3133629262447357,0.4318811893463135,1.0,0.88,0.00039685026299204955
917,0.31336918473243713,0.43184158205986023,1.0,0.88,0.00039685026299204955
918,0.31336861848831177,0.43183404207229614,1.0,0.88,0.00039685026299204955
919,0.3133704662322998,0.4318217933177948,1.0,0.88,0.00039685026299204955
920,0.3133707046508789,0.43181419372558594,1.0,0.88,0.00039685026299204955
921,0.3133639395236969,0.4318310022354126,1.0,0.88,0.00039685026299204955
922,0.3133688271045685,0.4318573772907257,1.0,0.88,0.00039685026299204955
923,0.31337472796440125,0.43192559480667114,1.0,0.88,0.00039685026299204955
924,0.31336769461631775,0.43193453550338745,1.0,0.88,0.00039685026299204955
925,0.31336772441864014,0.43198391795158386,1.0,0.88,0.00039685026299204955
926,0.3133692443370819,0.43200358748435974,1.0,0.88,0.00039685026299204955
927,0.31336572766304016,0.4320261776447296,1.0,0.88,0.00031498026247371797
928,0.31336405873298645,0.4320213794708252,1.0,0.88,0.00031498026247371797
929,0.3133653998374939,0.43203967809677124,1.0,0.88,0.00031498026247371797
930,0.3133639395236969,0.4320600628852844,1.0,0.88,0.00031498026247371797
931,0.3133656978607178,0.4320727586746216,1.0,0.88,0.00031498026247371797
932,0.3133623003959656,0.4320601224899292,1.0,0.88,0.00031498026247371797
933,0.3133605122566223,0.4320593774318695,1.0,0.88,0.00031498026247371797
934,0.31336379051208496,0.43207645416259766,1.0,0.88,0.00031498026247371797
935,0.31336304545402527,0.4320504665374756,1.0,0.88,0.00031498026247371797
936,0.31336474418640137,0.4320465922355652,1.0,0.88,0.00031498026247371797
937,0.3133687973022461,0.4320158362388611,1.0,0.88,0.00031498026247371797
938,0.3133617639541626,0.4319574236869812,1.0,0.88,0.00031498026247371797
939,0.31336379051208496,0.4319666624069214,1.0,0.88,0.00031498026247371797
940,0.31336700916290283,0.4319360852241516,1.0,0.88,0.00031498026247371797
941,0.3133658468723297,0.431942343711853,1.0,0.88,0.00031498026247371797
942,0.31337210536003113,0.4319474697113037,1.0,0.88,0.00031498026247371797
943,0.3133580684661865,0.43193644285202026,1.0,0.88,0.00031498026247371797
944,0.31336265802383423,0.4319143295288086,1.0,0.88,0.00031498026247371797
945,0.3133661150932312,0.43190306425094604,1.0,0.88,0.00031498026247371797
946,0.3133622705936432,0.4318850636482239,1.0,0.88,0.00031498026247371797
947,0.3133639991283417,0.43181324005126953,1.0,0.88,0.00031498026247371797
948,0.313363254070282,0.4317788779735565,1.0,0.88,0.00031498026247371797
949,0.3133612871170044,0.4317435026168823,1.0,0.88,0.00031498026247371797
950,0.31336528062820435,0.431723952293396,1.0,0.88,0.00031498026247371797
951,0.31335923075675964,0.43172314763069153,1.0,0.88,0.00031498026247371797
952,0.3133648633956909,0.43172404170036316,1.0,0.88,0.00031498026247371797
953,0.31335824728012085,0.43173977732658386,1.0,0.88,0.00031498026247371797
954,0.31336063146591187,0.43175774812698364,1.0,0.88,0.00031498026247371797
955,0.313363641500473,0.43179959058761597,1.0,0.88,0.00031498026247371797
956,0.31336233019828796,0.43183064460754395,1.0,0.88,0.00031498026247371797
957,0.31336215138435364,0.4318811297416687,1.0,0.88,0.00031498026247371797
958,0.31336233019828796,0.4319065511226654,1.0,0.88,0.00031498026247371797
959,0.3133655786514282,0.43192607164382935,1.0,0.88,0.00031498026247371797
960,0.31336528062820435,0.43195000290870667,1.0,0.88,0.00031498026247371797
961,0.31336262822151184,0.43197622895240784,1.0,0.88,0.00031498026247371797
962,0.31335920095443726,0.431976318359375,1.0,0.88,0.00031498026247371797
963,0.31336262822151184,0.4319222569465637,1.0,0.88,0.00031498026247371797
964,0.31336262822151184,0.43192562460899353,1.0,0.88,0.00031498026247371797
965,0.3133581578731537,0.43189603090286255,1.0,0.88,0.00031498026247371797
966,0.3133627772331238,0.4318782687187195,1.0,0.88,0.00031498026247371797
967,0.31336113810539246,0.43186742067337036,1.0,0.88,0.00031498026247371797
968,0.313360333442688,0.4318619966506958,1.0,0.88,0.00031498026247371797
969,0.3133585453033447,0.43185052275657654,1.0,0.88,0.00031498026247371797
970,0.3133664131164551,0.4318212866783142,1.0,0.88,0.00031498026247371797
971,0.31336528062820435,0.43181461095809937,1.0,0.88,0.00031498026247371797
972,0.31335964798927307,0.43184834718704224,1.0,0.88,0.00031498026247371797
973,0.3133651316165924,0.43186578154563904,1.0,0.88,0.00031498026247371797
974,0.31335899233818054,0.4318621754646301,1.0,0.88,0.00031498026247371797
975,0.31335920095443726,0.4318823516368866,1.0,0.88,0.00031498026247371797
976,0.3133595585823059,0.43188589811325073,1.0,0.88,0.00031498026247371797
977,0.3133549094200134,0.4319193959236145,1.0,0.88,0.00031498026247371797
978,0.31335997581481934,0.4319309890270233,1.0,0.88,0.00031498026247371797
979,0.3133653402328491,0.43195152282714844,1.0,0.88,0.00031498026247371797
980,0.31335505843162537,0.4319988191127777,1.0,0.88,0.00031498026247371797
981,0.3133612871170044,0.43198928236961365,1.0,0.88,0.00031498026247371797
982,0.3133581578731537,0.4320072531700134,1.0,0.88,0.00031498026247371797
983,0.3133542537689209,0.43199649453163147,1.0,0.88,0.00031498026247371797
984,0.31335851550102234,0.4319698214530945,1.0,0.88,0.00031498026247371797
985,0.3133581876754761,0.4319693446159363,1.0,0.88,0.00031498026247371797
986,0.31335610151290894,0.43195801973342896,1.0,0.88,0.00031498026247371797
987,0.3133535087108612,0.4319362938404083,1.0,0.88,0.00031498026247371797
988,0.31335556507110596,0.4319182336330414,1.0,0.88,0.00031498026247371797
989,0.31335896253585815,0.4319060444831848,1.0,0.88,0.00031498026247371797
990,0.31335723400115967,0.4318866431713104,1.0,0.88,0.00031498026247371797
991,0.31335362792015076,0.4318946897983551,1.0,0.88,0.00031498026247371797
992,0.31335780024528503,0.43189647793769836,1.0,0.88,0.00031498026247371797
993,0.3133614659309387,0.4319303631782532,1.0,0.88,0.00031498026247371797
994,0.3133563995361328,0.4319332242012024,1.0,0.88,0.00031498026247371797
995,0.3133569657802582,0.4319520890712738,1.0,0.88,0.00031498026247371797
996,0.31335726380348206,0.4319816827774048,1.0,0.88,0.00031498026247371797
997,0.3133549094200134,0.4319687783718109,1.0,0.88,0.00031498026247371797
998,0.3133551776409149,0.4319648742675781,1.0,0.88,0.00031498026247371797
999,0.31335514783859253,0.4319452941417694,1.0,0.88,0.00031498026247371797
1000,0.31335678696632385,0.43193045258522034,1.0,0.88,0.00031498026247371797
1001,0.31335651874542236,0.43193134665489197,1.0,0.88,0.00031498026247371797
1002,0.3133520781993866,0.4318985044956207,1.0,0.88,0.00031498026247371797
1003,0.3133573830127716,0.4318806827068329,1.0,0.88,0.00031498026247371797
1004,0.3133557140827179,0.43184947967529297,1.0,0.88,0.00031498026247371797
1005,0.31335461139678955,0.4318656623363495,1.0,0.88,0.00031498026247371797
1006,0.31335583329200745,0.4318827688694,1.0,0.88,0.00031498026247371797
1007,0.31335774064064026,0.4319194555282593,1.0,0.88,0.00031498026247371797
1008,0.31335222721099854,0.4319513738155365,1.0,0.88,0.00031498026247371797
1009,0.31335148215293884,0.43198299407958984,1.0,0.88,0.00031498026247371797
1010,0.31335315108299255,0.4320056140422821,1.0,0.88,0.00031498026247371797
1011,0.3133510649204254,0.43201813101768494,1.0,0.88,0.00031498026247371797
1012,0.313351035118103,0.43203502893447876,1.0,0.88,0.00031498026247371797
1013,0.31334948539733887,0.43205776810646057,1.0,0.88,0.00031498026247371797
1014,0.31335458159446716,0.4320541322231293,1.0,0.88,0.00031498026247371797
1015,0.31335294246673584,0.43204203248023987,1.0,0.88,0.00031498026247371797
1016,0.3133518695831299,0.43203139305114746,1.0,0.88,0.00031498026247371797
1017,0.3133524954319,0.43205884099006653,1.0,0.88,0.00031498026247371797
1018,0.3133544325828552,0.4320544898509979,1.0,0.88,0.00031498026247371797
1019,0.31335046887397766,0.4320557117462158,1.0,0.88,0.00031498026247371797
1020,0.31335294246673584,0.432096928358078,1.0,0.88,0.00031498026247371797
1021,0.31335538625717163,0.4320589005947113,1.0,0.88,0.00031498026247371797
1022,0.3133547902107239,0.4320603609085083,1.0,0.88,0.00031498026247371797
1023,0.31335732340812683,0.4320630133152008,1.0,0.88,0.00031498026247371797
1024,0.3133564889431,0.43209999799728394,1.0,0.88,0.00031498026247371797
1025,0.3133516013622284,0.43213188648223877,1.0,0.88,0.00031498026247371797
1026,0.31335777044296265,0.4321339428424835,1.0,0.88,0.00031498026247371797
1027,0.31335145235061646,0.4321313500404358,1.0,0.88,0.00031498026247371797
1028,0.31335362792015076,0.4321259558200836,1.0,0.88,0.0002499999999999997
1029,0.31335392594337463,0.4321436285972595,1.0,0.88,0.0002499999999999997
1030,0.3133518397808075,0.4321450889110565,1.0,0.88,0.0002499999999999997
1031,0.3133501708507538,0.43213269114494324,1.0,0.88,0.0002499999999999997
1032,0.31334972381591797,0.4321054220199585,1.0,0.88,0.0002499999999999997
1033,0.3133530020713806,0.4320967495441437,1.0,0.88,0.0002499999999999997
1034,0.31335070729255676,0.43206390738487244,1.0,0.88,0.0002499999999999997
1035,0.31335633993148804,0.43204638361930847,1.0,0.88,0.0002499999999999997
1036,0.3133493661880493,0.4320451021194458,1.0,0.88,0.0002499999999999997
1037,0.31335389614105225,0.4320111572742462,1.0,0.88,0.0002499999999999997
1038,0.31335362792015076,0.43201693892478943,1.0,0.88,0.0002499999999999997
1039,0.3133532404899597,0.43201637268066406,1.0,0.88,0.0002499999999999997
1040,0.31334882974624634,0.4320170283317566,1.0,0.88,0.0002499999999999997
1041,0.3133513629436493,0.4320160746574402,1.0,0.88,0.0002499999999999997
1042,0.3133491277694702,0.4320550262928009,1.0,0.88,0.0002499999999999997
1043,0.3133520185947418,0.4320375323295593,1.0,0.88,0.0002499999999999997
1044,0.3133533000946045,0.43205010890960693,1.0,0.88,0.0002499999999999997
1045,0.3133518099784851,0.43205726146698,1.0,0.88,0.0002499999999999997
1046,0.31334805488586426,0.432088166475296,1.0,0.88,0.0002499999999999997
1047,0.3133493959903717,0.4321092367172241,1.0,0.88,0.0002499999999999997
1048,0.3133549988269806,0.4320930540561676,1.0,0.88,0.0002499999999999997
1049,0.3133511543273926,0.4320729076862335,1.0,0.88,0.0002499999999999997
1050,0.31334733963012695,0.43207818269729614,1.0,0.88,0.0002499999999999997
1051,0.3133493661880493,0.4320729970932007,1.0,0.88,0.0002499999999999997
1052,0.31334805488586426,0.4320591390132904,1.0,0.88,0.0002499999999999997
1053,0.31335023045539856,0.4320426881313324,1.0,0.88,0.0002499999999999997
1054,0.3133498430252075,0.43202918767929077,1.0,0.88,0.0002499999999999997
1055,0.31334787607192993,0.4319787919521332,1.0,0.88,0.0002499999999999997
1056,0.31335121393203735,0.4319462478160858,1.0,0.88,0.0002499999999999997
1057,0.3133501708507538,0.431924045085907,1.0,0.88,0.0002499999999999997
1058,0.3133469521999359,0.4318869113922119,1.0,0.88,0.0002499999999999997
1059,0.31335437297821045,0.4318746328353882,1.0,0.88,0.0002499999999999997
1060,0.31334802508354187,0.43187740445137024,1.0,0.88,0.0002499999999999997
1061,0.3133523464202881,0.43186885118484497,1.0,0.88,0.0002499999999999997
1062,0.3133503198623657,0.4318777918815613,1.0,0.88,0.0002499999999999997
1063,0.3133504390716553,0.43188241124153137,1.0,0.88,0.0002499999999999997
1064,0.3133491575717926,0.43187540769577026,1.0,0.88,0.0002499999999999997
1065,0.313342422246933,0.4318704605102539,1.0,0.88,0.0002499999999999997
1066,0.3133491575717926,0.43185606598854065,1.0,0.88,0.0002499999999999997
1067,0.31335175037384033,0.4318891763687134,1.0,0.88,0.0002499999999999997
1068,0.3133488893508911,0.4318999946117401,1.0,0.88,0.0002499999999999997
1069,0.3133450746536255,0.43192943930625916,1.0,0.88,0.0002499999999999997
1070,0.3133479654788971,0.43193677067756653,1.0,0.88,0.0002499999999999997
1071,0.31335026025772095,0.4319416880607605,1.0,0.88,0.0002499999999999997
1072,0.31335482001304626,0.4319758713245392,1.0,0.88,0.0002499999999999997
1073,0.31335392594337463,0.4319973886013031,1.0,0.88,0.0002499999999999997
1074,0.31334760785102844,0.4320226311683655,1.0,0.88,0.0002499999999999997
1075,0.31334811449050903,0.4320276975631714,1.0,0.88,0.0002499999999999997
1076,0.3133508563041687,0.4320134222507477,1.0,0.88,0.0002499999999999997
1077,0.3133455514907837,0.4320061206817627,1.0,0.88,0.0002499999999999997
1078,0.3133466839790344,0.4319998025894165,1.0,0.88,0.0002499999999999997
1079,0.3133472502231598,0.4319886267185211,1.0,0.88,0.0002499999999999997
1080,0.31334641575813293,0.43198245763778687,1.0,0.88,0.0002499999999999997
1081,0.3133455216884613,0.43197014927864075,1.0,0.88,0.0002499999999999997
1082,0.313347190618515,0.43195462226867676,1.0,0.88,0.0002499999999999997
1083,0.3133469521999359,0.4319605231285095,1.0,0.88,0.0002499999999999997
1084,0.3133459985256195,0.431954950094223,1.0,0.88,0.0002499999999999997
1085,0.3133436441421509,0.43192172050476074,1.0,0.88,0.0002499999999999997
1086,0.31334635615348816,0.43192729353904724,1.0,0.88,0.0002499999999999997
1087,0.3133476972579956,0.4319121241569519,1.0,0.88,0.0002499999999999997
1088,0.31334373354911804,0.4319278299808502,1.0,0.88,0.0002499999999999997
1089,0.3133453130722046,0.4319082498550415,1.0,0.88,0.0002499999999999997
1090,0.3133450746536255,0.4319053292274475,1.0,0.88,0.0002499999999999997
1091,0.31334736943244934,0.4318942725658417,1.0,0.88,0.0002499999999999997
1092,0.31334343552589417,0.4319164752960205,1.0,0.88,0.0002499999999999997
1093,0.313348650932312,0.4319409430027008,1.0,0.88,0.0002499999999999997
1094,0.31334540247917175,0.4319666922092438,1.0,0.88,0.0002499999999999997
1095,0.3133467435836792,0.43198609352111816,1.0,0.88,0.0002499999999999997
1096,0.31334754824638367,0.43202075362205505,1.0,0.88,0.0002499999999999997
1097,0.3133423626422882,0.43204787373542786,1.0,0.88,0.0002499999999999997
1098,0.3133448362350464,0.4320548176765442,1.0,0.88,0.0002499999999999997
1099,0.31334713101387024,0.4320422410964966,1.0,0.88,0.0002499999999999997
1100,0.313343346118927,0.4320739805698395,1.0,0.88,0.0002499999999999997
1101,0.31334853172302246,0.43207716941833496,1.0,0.88,0.0002499999999999997
1102,0.31334683299064636,0.4320300817489624,1.0,0.88,0.0002499999999999997
1103,0.31334859132766724,0.4320220947265625,1.0,0.88,0.0002499999999999997
1104,0.3133450150489807,0.43202126026153564,1.0,0.88,0.0002499999999999997
1105,0.31334754824638367,0.43201377987861633,1.0,0.88,0.0002499999999999997
1106,0.31334906816482544,0.43201518058776855,1.0,0.88,0.0002499999999999997
1107,0.313348650932312,0.432027667760849,1.0,0.88,0.0002499999999999997
1108,0.31334632635116577,0.43203526735305786,1.0,0.88,0.0002499999999999997
1109,0.31334272027015686,0.43205440044403076,1.0,0.88,0.0002499999999999997
1110,0.3133453130722046,0.4320707321166992,1.0,0.88,0.0002499999999999997
1111,0.3133435547351837,0.4320964515209198,1.0,0.88,0.0002499999999999997
1112,0.31334272027015686,0.4320932626724243,1.0,0.88,0.0002499999999999997
1113,0.31334322690963745,0.43211326003074646,1.0,0.88,0.0002499999999999997
1114,0.3133423328399658,0.4321018159389496,1.0,0.88,0.0002499999999999997
1115,0.313342422246933,0.43207255005836487,1.0,0.88,0.0002499999999999997
1116,0.31334376335144043,0.4320531487464905,1.0,0.88,0.0002499999999999997
1117,0.3133457899093628,0.43200796842575073,1.0,0.88,0.0002499999999999997
1118,0.3133425712585449,0.43196022510528564,1.0,0.88,0.0002499999999999997
1119,0.3133459985256195,0.4319635033607483,1.0,0.88,0.0002499999999999997
1120,0.31334513425827026,0.4319218099117279,1.0,0.88,0.0002499999999999997
1121,0.3133467733860016,0.4318975806236267,1.0,0.88,0.0002499999999999997
1122,0.3133466839790344,0.43189266324043274,1.0,0.88,0.0002499999999999997
1123,0.3133469820022583,0.43189284205436707,1.0,0.88,0.0002499999999999997
1124,0.3133412301540375,0.43190523982048035,1.0,0.88,0.0002499999999999997
1125,0.3133438527584076,0.43187588453292847,1.0,0.88,0.0002499999999999997
1126,0.31334108114242554,0.4318563938140869,1.0,0.88,0.0002499999999999997
1127,0.31334546208381653,0.43190082907676697,1.0,0.88,0.0002499999999999997
1128,0.3133448362350464,0.4318765699863434,1.0,0.88,0.0002499999999999997
1129,0.3133389949798584,0.4318661093711853,1.0,0.88,0.00019842513149602464
1130,0.31334424018859863,0.43186894059181213,1.0,0.88,0.00019842513149602464
1131,0.3133433759212494,0.4318810701370239,1.0,0.88,0.00019842513149602464
1132,0.31334632635116577,0.43186819553375244,1.0,0.88,0.00019842513149602464
1133,0.3133434057235718,0.4318719804286957,1.0,0.88,0.00019842513149602464
1134,0.31334322690963745,0.4318784475326538,1.0,0.88,0.00019842513149602464
1135,0.31334391236305237,0.43188631534576416,1.0,0.88,0.00019842513149602464
1136,0.3133476674556732,0.4319036900997162,1.0,0.88,0.00019842513149602464
1137,0.31334060430526733,0.4319312274456024,1.0,0.88,0.00019842513149602464
1138,0.3133455216884613,0.4319237172603607,1.0,0.88,0.00019842513149602464
1139,0.31334570050239563,0.4319324195384979,1.0,0.88,0.00019842513149602464
1140,0.3133378326892853,0.4319489300251007,1.0,0.88,0.00019842513149602464
1141,0.3133469820022583,0.43190592527389526,1.0,0.88,0.00019842513149602464
1142,0.313342809677124,0.43193337321281433,1.0,0.88,0.00019842513149602464
1143,0.3133426904678345,0.43192920088768005,1.0,0.88,0.00019842513149602464
1144,0.31334301829338074,0.43191802501678467,1.0,0.88,0.00019842513149602464
1145,0.31334051489830017,0.43192559480667114,1.0,0.88,0.00019842513149602464
1146,0.31334182620048523,0.43194863200187683,1.0,0.88,0.00019842513149602464
1147,0.3133372366428375,0.4319276511669159,1.0,0.88,0.00019842513149602464
1148,0.31333938241004944,0.43194127082824707,1.0,0.88,0.00019842513149602464
1149,0.31334105134010315,0.4319446086883545,1.0,0.88,0.00019842513149602464
1150,0.3133460581302643,0.4319242537021637,1.0,0.88,0.00019842513149602464
1151,0.3133431673049927,0.4319268465042114,1.0,0.88,0.00019842513149602464
1152,0.3133414089679718,0.4319422245025635,1.0,0.88,0.00019842513149602464
1153,0.3133411705493927,0.43192633986473083,1.0,0.88,0.00019842513149602464
1154,0.3133438229560852,0.4319327473640442,1.0,0.88,0.00019842513149602464
1155,0.3133397400379181,0.43193140625953674,1.0,0.88,0.00019842513149602464
1156,0.3133409321308136,0.431939959526062,1.0,0.88,0.00019842513149602464
1157,0.313343346118927,0.431931734085083,1.0,0.88,0.00019842513149602464
1158,0.3133429288864136,0.43194276094436646,1.0,0.88,0.00019842513149602464
1159,0.3133406639099121,0.4319562017917633,1.0,0.88,0.00019842513149602464
1160,0.31334248185157776,0.43193748593330383,1.0,0.88,0.00019842513149602464
1161,0.313343346118927,0.4319465160369873,1.0,0.88,0.00019842513149602464
1162,0.3133417069911957,0.43195033073425293,1.0,0.88,0.00019842513149602464
1163,0.313340425491333,0.4319579005241394,1.0,0.88,0.00019842513149602464
1164,0.31333792209625244,0.43197232484817505,1.0,0.88,0.00019842513149602464
1165,0.313341349363327,0.4319916069507599,1.0,0.88,0.00019842513149602464
1166,0.3133421242237091,0.43200433254241943,1.0,0.88,0.00019842513149602464
1167,0.31334254145622253,0.4320162236690521,1.0,0.88,0.00019842513149602464
1168,0.31334057450294495,0.43200361728668213,1.0,0.88,0.00019842513149602464
1169,0.31333911418914795,0.43202832341194153,1.0,0.88,0.00019842513149602464
1170,0.3133409917354584,0.43198317289352417,1.0,0.88,0.00019842513149602464
1171,0.31334027647972107,0.43198028206825256,1.0,0.88,0.00019842513149602464
1172,0.31333866715431213,0.43196719884872437,1.0,0.88,0.00019842513149602464
1173,0.31333979964256287,0.43196403980255127,1.0,0.88,0.00019842513149602464
1174,0.31333789229393005,0.43196675181388855,1.0,0.88,0.00019842513149602464
1175,0.3133435845375061,0.43197017908096313,1.0,0.88,0.00019842513149602464
1176,0.31334149837493896,0.4319574236869812,1.0,0.88,0.00019842513149602464
1177,0.31334322690963745,0.43195754289627075,1.0,0.88,0.00019842513149602464
1178,0.3133411705493927,0.43189603090286255,1.0,0.88,0.00019842513149602464
1179,0.3133426010608673,0.43193167448043823,1.0,0.88,0.00019842513149602464
1180,0.31334054470062256,0.431923508644104,1.0,0.88,0.00019842513149602464
1181,0.3133394718170166,0.43195778131484985,1.0,0.88,0.00019842513149602464
1182,0.31334182620048523,0.43196484446525574,1.0,0.88,0.00019842513149602464
1183,0.31334131956100464,0.43197575211524963,1.0,0.88,0.00019842513149602464
1184,0.31334030628204346,0.43198272585868835,1.0,0.88,0.00019842513149602464
1185,0.31334319710731506,0.43197858333587646,1.0,0.88,0.00019842513149602464
1186,0.3133368194103241,0.43198099732398987,1.0,0.88,0.00019842513149602464
1187,0.3133394718170166,0.4319876432418823,1.0,0.88,0.00019842513149602464
1188,0.31333839893341064,0.4319583475589752,1.0,0.88,0.00019842513149602464
1189,0.31333914399147034,0.43197089433670044,1.0,0.88,0.00019842513149602464
1190,0.3133389353752136,0.43200692534446716,1.0,0.88,0.00019842513149602464
1191,0.3133408725261688,0.43198832869529724,1.0,0.88,0.00019842513149602464
1192,0.31333819031715393,0.43196922540664673,1.0,0.88,0.00019842513149602464
1193,0.3133416771888733,0.43198439478874207,1.0,0.88,0.00019842513149602464
1194,0.31334131956100464,0.43198931217193604,1.0,0.88,0.00019842513149602464
1195,0.3133409917354584,0.43198952078819275,1.0,0.88,0.00019842513149602464
1196,0.313338041305542,0.4319967031478882,1.0,0.88,0.00019842513149602464
1197,0.3133418560028076,0.4319857060909271,1.0,0.88,0.00019842513149602464
1198,0.31333962082862854,0.43198174238204956,1.0,0.88,0.00019842513149602464
1199,0.31334051489830017,0.4319533407688141,1.0,0.88,0.00019842513149602464
1200,0.31334030628204346,0.4319269061088562,1.0,0.88,0.00019842513149602464
1201,0.31334054470062256,0.431914359331131,1.0,0.88,0.00019842513149602464
1202,0.31333422660827637,0.4319060146808624,1.0,0.88,0.00019842513149602464
1203,0.31333836913108826,0.43186527490615845,1.0,0.88,0.00019842513149602464
1204,0.31333741545677185,0.4318825602531433,1.0,0.88,0.00019842513149602464
1205,0.3133407533168793,0.431880921125412,1.0,0.88,0.00019842513149602464
1206,0.31333985924720764,0.43188485503196716,1.0,0.88,0.00019842513149602464
1207,0.31334030628204346,0.43186435103416443,1.0,0.88,0.00019842513149602464
1208,0.31333744525909424,0.4318634271621704,1.0,0.88,0.00019842513149602464
1209,0.31333914399147034,0.4318808317184448,1.0,0.88,0.00019842513149602464
1210,0.3133361339569092,0.43191203474998474,1.0,0.88,0.00019842513149602464
1211,0.3133365511894226,0.43191733956336975,1.0,0.88,0.00019842513149602464
1212,0.31333622336387634,0.4319301247596741,1.0,0.88,0.00019842513149602464
1213,0.31333673000335693,0.43193045258522034,1.0,0.88,0.00019842513149602464
1214,0.3133390545845032,0.4319626986980438,1.0,0.88,0.00019842513149602464
1215,0.3133392035961151,0.43197643756866455,1.0,0.88,0.00019842513149602464
1216,0.31333890557289124,0.4320286214351654,1.0,0.88,0.00019842513149602464
1217,0.3133384883403778,0.43204039335250854,1.0,0.88,0.00019842513149602464
1218,0.3133400082588196,0.4320337772369385,1.0,0.88,0.00019842513149602464
1219,0.31333938241004944,0.4320541024208069,1.0,0.88,0.00019842513149602464
1220,0.31333720684051514,0.43208518624305725,1.0,0.88,0.00019842513149602464
1221,0.3133390545845032,0.432056725025177,1.0,0.88,0.00019842513149602464
1222,0.3133382499217987,0.43204227089881897,1.0,0.88,0.00019842513149602464
1223,0.31333956122398376,0.4320087134838104,1.0,0.88,0.00019842513149602464
1224,0.31333866715431213,0.4320245385169983,1.0,0.88,0.00019842513149602464
1225,0.3133406341075897,0.4320538341999054,1.0,0.88,0.00019842513149602464
1226,0.3133394122123718,0.4320092499256134,1.0,0.88,0.00019842513149602464
1227,0.3133365511894226,0.43197163939476013,1.0,0.88,0.00019842513149602464
1228,0.31333550810813904,0.43195900321006775,1.0,0.88,0.00019842513149602464
1229,0.31334108114242554,0.431924968957901,1.0,0.88,0.00019842513149602464
1230,0.3133339583873749,0.43190330266952515,1.0,0.88,0.00015749013123685888
1231,0.3133355379104614,0.43189725279808044,1.0,0.88,0.00015749013123685888
1232,0.31333693861961365,0.43188273906707764,1.0,0.88,0.00015749013123685888
1233,0.31333860754966736,0.4318746328353882,1.0,0.88,0.00015749013123685888
1234,0.31333470344543457,0.4318903982639313,1.0,0.88,0.00015749013123685888
1235,0.31333670020103455,0.43186134099960327,1.0,0.88,0.00015749013123685888
1236,0.3133343756198883,0.4318704307079315,1.0,0.88,0.00015749013123685888
1237,0.31333863735198975,0.43181976675987244,1.0,0.88,0.00015749013123685888
1238,0.3133378326892853,0.4318253993988037,1.0,0.88,0.00015749013123685888
1239,0.31333673000335693,0.4318027198314667,1.0,0.88,0.00015749013123685888
1240,0.3133386969566345,0.4318116009235382,1.0,0.88,0.00015749013123685888
1241,0.31333526968955994,0.43180787563323975,1.0,0.88,0.00015749013123685888
1242,0.3133336007595062,0.4318050444126129,1.0,0.88,0.00015749013123685888
1243,0.3133355379104614,0.4318273067474365,1.0,0.88,0.00015749013123685888
1244,0.3133375644683838,0.4318169355392456,1.0,0.88,0.00015749013123685888
1245,0.3133377134799957,0.43181324005126953,1.0,0.88,0.00015749013123685888
1246,0.3133358061313629,0.43183407187461853,1.0,0.88,0.00015749013123685888
1247,0.3133348226547241,0.4317971169948578,1.0,0.88,0.00015749013123685888
1248,0.31333574652671814,0.43179500102996826,1.0,0.88,0.00015749013123685888
1249,0.31333354115486145,0.43181028962135315,1.0,0.88,0.00015749013123685888
1250,0.3133361041545868,0.4318307936191559,1.0,0.88,0.00015749013123685888
1251,0.31333452463150024,0.43179675936698914,1.0,0.88,0.00015749013123685888
1252,0.3133344352245331,0.43181702494621277,1.0,0.88,0.00015749013123685888
1253,0.31333914399147034,0.4317997694015503,1.0,0.88,0.00015749013123685888
1254,0.3133360743522644,0.4317939877510071,1.0,0.88,0.00015749013123685888
1255,0.31333550810813904,0.43179112672805786,1.0,0.88,0.00015749013123685888
1256,0.3133361339569092,0.4317767322063446,1.0,0.88,0.00015749013123685888
1257,0.31333646178245544,0.4318004548549652,1.0,0.88,0.00015749013123685888
1258,0.31333911418914795,0.43178245425224304,1.0,0.88,0.00015749013123685888
1259,0.31333404779434204,0.43177804350852966,1.0,0.88,0.00015749013123685888
1260,0.31333792209625244,0.4317830801010132,1.0,0.88,0.00015749013123685888
1261,0.3133317828178406,0.4317580759525299,1.0,0.88,0.00015749013123685888
1262,0.3133355975151062,0.431763619184494,1.0,0.88,0.00015749013123685888
1263,0.31333667039871216,0.4317515194416046,1.0,0.88,0.00015749013123685888
1264,0.3133348822593689,0.43172839283943176,1.0,0.88,0.00015749013123685888
1265,0.3133334517478943,0.43171900510787964,1.0,0.88,0.00015749013123685888
1266,0.3133355379104614,0.43170782923698425,1.0,0.88,0.00015749013123685888
1267,0.31333494186401367,0.43169692158699036,1.0,0.88,0.00015749013123685888
1268,0.3133310377597809,0.43169134855270386,1.0,0.88,0.00015749013123685888
1269,0.31333476305007935,0.43170079588890076,1.0,0.88,0.00015749013123685888
1270,0.3133346438407898,0.4316743016242981,1.0,0.88,0.00015749013123685888
1271,0.31333598494529724,0.43168023228645325,1.0,0.88,0.00015749013123685888
1272,0.31333616375923157,0.43169742822647095,1.0,0.88,0.00015749013123685888
1273,0.3133350610733032,0.43171367049217224,1.0,0.88,0.00015749013123685888
1274,0.31333667039871216,0.43172404170036316,1.0,0.88,0.00015749013123685888
1275,0.313334196805954,0.4317623972892761,1.0,0.88,0.00015749013123685888
1276,0.3133341670036316,0.4317685067653656,1.0,0.88,0.00015749013123685888
1277,0.3133336901664734,0.4317874014377594,1.0,0.88,0.00015749013123685888
1278,0.3133343458175659,0.4317832589149475,1.0,0.88,0.00015749013123685888
1279,0.3133357763290405,0.43176379799842834,1.0,0.88,0.00015749013123685888
1280,0.31333494186401367,0.43177130818367004,1.0,0.88,0.00015749013123685888
1281,0.3133396506309509,0.43177518248558044,1.0,0.88,0.00015749013123685888
1282,0.31333446502685547,0.4317719340324402,1.0,0.88,0.00015749013123685888
1283,0.3133329451084137,0.43177294731140137,1.0,0.88,0.00015749013123685888
1284,0.3133328855037689,0.4317725896835327,1.0,0.88,0.00015749013123685888
1285,0.313332200050354,0.43176573514938354,1.0,0.88,0.00015749013123685888
1286,0.31333181262016296,0.43176552653312683,1.0,0.88,0.00015749013123685888
1287,0.3133343756198883,0.4317439794540405,1.0,0.88,0.00015749013123685888
1288,0.3133351802825928,0.43175002932548523,1.0,0.88,0.00015749013123685888
1289,0.3133385181427002,0.4317435920238495,1.0,0.88,0.00015749013123685888
1290,0.3133370578289032,0.43177086114883423,1.0,0.88,0.00015749013123685888
1291,0.31333380937576294,0.4317777156829834,1.0,0.88,0.00015749013123685888
1292,0.31333568692207336,0.4317892789840698,1.0,0.88,0.00015749013123685888
1293,0.31333550810813904,0.43178507685661316,1.0,0.88,0.00015749013123685888
1294,0.31333133578300476,0.4317857027053833,1.0,0.88,0.00015749013123685888
1295,0.31333163380622864,0.43176665902137756,1.0,0.88,0.00015749013123685888
1296,0.3133334815502167,0.4317736327648163,1.0,0.88,0.00015749013123685888
1297,0.31333431601524353,0.43175843358039856,1.0,0.88,0.00015749013123685888
1298,0.313337504863739,0.43174391984939575,1.0,0.88,0.00015749013123685888
1299,0.3133313059806824,0.431728720664978,1.0,0.88,0.00015749013123685888
1300,0.3133370578289032,0.431713342666626,1.0,0.88,0.00015749013123685888
1301,0.3133334219455719,0.4317154288291931,1.0,0.88,0.00015749013123685888
1302,0.31333133578300476,0.43169891834259033,1.0,0.88,0.00015749013123685888
1303,0.3133322596549988,0.43168601393699646,1.0,0.88,0.00015749013123685888
1304,0.31333163380622864,0.4316618740558624,1.0,0.88,0.00015749013123685888
1305,0.3133351504802704,0.4316382110118866,1.0,0.88,0.00015749013123685888
1306,0.31333574652671814,0.43162986636161804,1.0,0.88,0.00015749013123685888
1307,0.31333720684051514,0.4316350519657135,1.0,0.88,0.00015749013123685888
1308,0.31333333253860474,0.43163010478019714,1.0,0.88,0.00015749013123685888
1309,0.31333285570144653,0.43163377046585083,1.0,0.88,0.00015749013123685888
1310,0.3133338689804077,0.43163737654685974,1.0,0.88,0.00015749013123685888
1311,0.31333568692207336,0.431642085313797,1.0,0.88,0.00015749013123685888
1312,0.31333354115486145,0.4316350817680359,1.0,0.88,0.00015749013123685888
1313,0.313335120677948,0.4316140115261078,1.0,0.88,0.00015749013123685888
1314,0.31333407759666443,0.4316157102584839,1.0,0.88,0.00015749013123685888
1315,0.3133343458175659,0.43162640929222107,1.0,0.88,0.00015749013123685888
1316,0.31333452463150024,0.4316309988498688,1.0,0.88,0.00015749013123685888
1317,0.3133304715156555,0.43164610862731934,1.0,0.88,0.00015749013123685888
1318,0.31333544850349426,0.4316564202308655,1.0,0.88,0.00015749013123685888
1319,0.3133321702480316,0.4316698908805847,1.0,0.88,0.00015749013123685888
1320,0.31333374977111816,0.43168357014656067,1.0,0.88,0.00015749013123685888
1321,0.31333127617836,0.4316883087158203,1.0,0.88,0.00015749013123685888
1322,0.31333184242248535,0.4317066967487335,1.0,0.88,0.00015749013123685888
1323,0.3133314847946167,0.43169188499450684,1.0,0.88,0.00015749013123685888
1324,0.31333020329475403,0.43169140815734863,1.0,0.88,0.00015749013123685888
1325,0.31333380937576294,0.43170326948165894,1.0,0.88,0.00015749013123685888
1326,0.3133317232131958,0.43170925974845886,1.0,0.88,0.00015749013123685888
1327,0.3133302927017212,0.4317043423652649,1.0,0.88,0.00015749013123685888
1328,0.31333231925964355,0.43172672390937805,1.0,0.88,0.00015749013123685888
1329,0.31332868337631226,0.4317268133163452,1.0,0.88,0.00015749013123685888
1330,0.3133344054222107,0.4317553639411926,1.0,0.88,0.00015749013123685888
1331,0.3133329451084137,0.4317539632320404,1.0,0.88,0.00012499999999999976
1332,0.31333157420158386,0.4317722022533417,1.0,0.88,0.00012499999999999976
1333,0.3133319020271301,0.43176326155662537,1.0,0.88,0.00012499999999999976
1334,0.3133328855037689,0.43174779415130615,1.0,0.88,0.00012499999999999976
1335,0.3133317530155182,0.4317469894886017,1.0,0.88,0.00012499999999999976
1336,0.31333085894584656,0.43173515796661377,1.0,0.88,0.00012499999999999976
1337,0.31332817673683167,0.4317134618759155,1.0,0.88,0.00012499999999999976
1338,0.31333112716674805,0.43173712491989136,1.0,0.88,0.00012499999999999976
1339,0.31333374977111816,0.4317319393157959,1.0,0.88,0.00012499999999999976
1340,0.3133341670036316,0.43173927068710327,1.0,0.88,0.00012499999999999976
1341,0.3133344352245331,0.43173912167549133,1.0,0.88,0.00012499999999999976
1342,0.31333062052726746,0.4317265748977661,1.0,0.88,0.00012499999999999976
1343,0.31333407759666443,0.43172526359558105,1.0,0.88,0.00012499999999999976
1344,0.3133344054222107,0.43171581625938416,1.0,0.88,0.00012499999999999976
1345,0.31333300471305847,0.4316980242729187,1.0,0.88,0.00012499999999999976
1346,0.31333187222480774,0.4316965341567993,1.0,0.88,0.00012499999999999976
1347,0.3133333921432495,0.4316997230052948,1.0,0.88,0.00012499999999999976
1348,0.31333276629447937,0.431684672832489,1.0,0.88,0.00012499999999999976
1349,0.3133329451084137,0.4316861033439636,1.0,0.88,0.00012499999999999976
1350,0.31333398818969727,0.4317147731781006,1.0,0.88,0.00012499999999999976
1351,0.3133319914340973,0.43172329664230347,1.0,0.88,0.00012499999999999976
1352,0.31332963705062866,0.4317193329334259,1.0,0.88,0.00012499999999999976
1353,0.3133310377597809,0.4317063093185425,1.0,0.88,0.00012499999999999976
1354,0.3133319020271301,0.43170586228370667,1.0,0.88,0.00012499999999999976
1355,0.3133334815502167,0.4317052960395813,1.0,0.88,0.00012499999999999976
1356,0.3133273422718048,0.43170204758644104,1.0,0.88,0.00012499999999999976
1357,0.3133317530155182,0.4316982328891754,1.0,0.88,0.00012499999999999976
1358,0.31332990527153015,0.431675523519516,1.0,0.88,0.00012499999999999976
1359,0.31333136558532715,0.4316703677177429,1.0,0.88,0.00012499999999999976
1360,0.3133303225040436,0.4316832423210144,1.0,0.88,0.00012499999999999976
1361,0.3133293688297272,0.431701123714447,1.0,0.88,0.00012499999999999976
1362,0.3133315443992615,0.4316967725753784,1.0,0.88,0.00012499999999999976
1363,0.31333163380622864,0.4316844940185547,1.0,0.88,0.00012499999999999976
1364,0.3133297860622406,0.4316938817501068,1.0,0.88,0.00012499999999999976
1365,0.31333091855049133,0.43169283866882324,1.0,0.88,0.00012499999999999976
1366,0.3133328855037689,0.4317021667957306,1.0,0.88,0.00012499999999999976
1367,0.3133295178413391,0.43170681595802307,1.0,0.88,0.00012499999999999976
1368,0.3133288621902466,0.43171805143356323,1.0,0.88,0.00012499999999999976
1369,0.31333211064338684,0.4317297339439392,1.0,0.88,0.00012499999999999976
1370,0.3133324086666107,0.43174031376838684,1.0,0.88,0.00012499999999999976
1371,0.31333133578300476,0.43174412846565247,1.0,0.88,0.00012499999999999976
1372,0.3133285641670227,0.4317513704299927,1.0,0.88,0.00012499999999999976
1373,0.31332844495773315,0.43172863125801086,1.0,0.88,0.00012499999999999976
1374,0.3133336305618286,0.431768000125885,1.0,0.88,0.00012499999999999976
1375,0.31333035230636597,0.4317260980606079,1.0,0.88,0.00012499999999999976
1376,0.3133295178413391,0.4317103922367096,1.0,0.88,0.00012499999999999976
1377,0.3133312463760376,0.4317103624343872,1.0,0.88,0.00012499999999999976
1378,0.31332871317863464,0.4316994845867157,1.0,0.88,0.00012499999999999976
1379,0.3133319914340973,0.43167364597320557,1.0,0.88,0.00012499999999999976
1380,0.3133282959461212,0.4317224621772766,1.0,0.88,0.00012499999999999976
1381,0.31333115696907043,0.431732177734375,1.0,0.88,0.00012499999999999976
1382,0.31333184242248535,0.43167996406555176,1.0,0.88,0.00012499999999999976
1383,0.31333062052726746,0.43166306614875793,1.0,0.88,0.00012499999999999976
1384,0.3133326768875122,0.43167173862457275,1.0,0.88,0.00012499999999999976
1385,0.31333205103874207,0.431655615568161,1.0,0.88,0.00012499999999999976
1386,0.31333020329475403,0.43171244859695435,1.0,0.88,0.00012499999999999976
1387,0.3133299648761749,0.43172138929367065,1.0,0.88,0.00012499999999999976
1388,0.31332939863204956,0.43169447779655457,1.0,0.88,0.00012499999999999976
1389,0.31333011388778687,0.43170157074928284,1.0,0.88,0.00012499999999999976
1390,0.3133296072483063,0.43174850940704346,1.0,0.88,0.00012499999999999976
1391,0.3133319318294525,0.43171584606170654,1.0,0.88,0.00012499999999999976
1392,0.31333455443382263,0.43166396021842957,1.0,0.88,0.00012499999999999976
1393,0.3133297264575958,0.43174415826797485,1.0,0.88,0.00012499999999999976
1394,0.31332823634147644,0.4317392110824585,1.0,0.88,0.00012499999999999976
1395,0.31332775950431824,0.4317418336868286,1.0,0.88,0.00012499999999999976
1396,0.3133310377597809,0.43174925446510315,1.0,0.88,0.00012499999999999976
1397,0.31332993507385254,0.4317588806152344,1.0,0.88,0.00012499999999999976
1398,0.31332865357398987,0.4317845404148102,1.0,0.88,0.00012499999999999976
1399,0.31333285570144653,0.43174248933792114,1.0,0.88,0.00012499999999999976
1400,0.3133278787136078,0.43173858523368835,1.0,0.88,0.00012499999999999976
1401,0.3133270740509033,0.43171364068984985,1.0,0.88,0.00012499999999999976
1402,0.31333157420158386,0.43179044127464294,1.0,0.88,0.00012499999999999976
1403,0.313328355550766,0.43179142475128174,1.0,0.88,0.00012499999999999976
1404,0.3133297264575958,0.4317834973335266,1.0,0.88,0.00012499999999999976
1405,0.31333020329475403,0.4317857027053833,1.0,0.88,0.00012499999999999976
1406,0.31332987546920776,0.4317720830440521,1.0,0.88,0.00012499999999999976
1407,0.31332632899284363,0.43177303671836853,1.0,0.88,0.00012499999999999976
1408,0.31333068013191223,0.43176814913749695,1.0,0.88,0.00012499999999999976
1409,0.3133307695388794,0.43175843358039856,1.0,0.88,0.00012499999999999976
1410,0.3133286237716675,0.4317583739757538,1.0,0.88,0.00012499999999999976
1411,0.3133287727832794,0.4317570924758911,1.0,0.88,0.00012499999999999976
1412,0.31332850456237793,0.4317437410354614,1.0,0.88,0.00012499999999999976
1413,0.31332892179489136,0.4317520260810852,1.0,0.88,0.00012499999999999976
1414,0.3133290112018585,0.4317440092563629,1.0,0.88,0.00012499999999999976
1415,0.3133271336555481,0.431720495223999,1.0,0.88,0.00012499999999999976
1416,0.31332868337631226,0.43173831701278687,1.0,0.88,0.00012499999999999976
1417,0.3133322298526764,0.4316825568675995,1.0,0.88,0.00012499999999999976
1418,0.31333327293395996,0.43169495463371277,1.0,0.88,0.00012499999999999976
1419,0.31332695484161377,0.43170738220214844,1.0,0.88,0.00012499999999999976
1420,0.3133305609226227,0.43169090151786804,1.0,0.88,0.00012499999999999976
1421,0.31332927942276,0.43175509572029114,1.0,0.88,0.00012499999999999976
1422,0.3133287727832794,0.43175816535949707,1.0,0.88,0.00012499999999999976
1423,0.3133310079574585,0.4317653179168701,1.0,0.88,0.00012499999999999976
1424,0.31332728266716003,0.4317775070667267,1.0,0.88,0.00012499999999999976
1425,0.3133309781551361,0.4317971169948578,1.0,0.88,0.00012499999999999976
1426,0.31333020329475403,0.431792676448822,1.0,0.88,0.00012499999999999976
1427,0.31333160400390625,0.43181389570236206,1.0,0.88,0.00012499999999999976
1428,0.31332874298095703,0.4318215847015381,1.0,0.88,0.00012499999999999976
1429,0.3133333921432495,0.4318014979362488,1.0,0.88,0.00012499999999999976
1430,0.3133252263069153,0.4318045675754547,1.0,0.88,0.00012499999999999976
1431,0.3133264183998108,0.43179774284362793,1.0,0.88,0.00012499999999999976
1432,0.3133305311203003,0.43182164430618286,1.0,0.88,0.0001
1433,0.3133269250392914,0.4318200349807739,1.0,0.88,0.0001
1434,0.31332865357398987,0.43177780508995056,1.0,0.88,0.0001
1435,0.3133305013179779,0.4318488836288452,1.0,0.88,0.0001
1436,0.313326358795166,0.4318418800830841,1.0,0.88,0.0001
1437,0.31333136558532715,0.431816965341568,1.0,0.88,0.0001
1438,0.31333205103874207,0.43179693818092346,1.0,0.88,0.0001
1439,0.3133249878883362,0.4317728877067566,1.0,0.88,0.0001
1440,0.3133299946784973,0.43175479769706726,1.0,0.88,0.0001
1441,0.31332647800445557,0.43171414732933044,1.0,0.88,0.0001
1442,0.31332647800445557,0.4316953420639038,1.0,0.88,0.0001
1443,0.31332719326019287,0.4316632151603699,1.0,0.88,0.0001
1444,0.31332558393478394,0.4317047595977783,1.0,0.88,0.0001
1445,0.31332844495773315,0.431612104177475,1.0,0.88,0.0001
1446,0.3133278787136078,0.4316027760505676,1.0,0.88,0.0001
1447,0.31332749128341675,0.4315805435180664,1.0,0.88,0.0001
1448,0.31332823634147644,0.4315648376941681,1.0,0.88,0.0001
1449,0.31332868337631226,0.43154966831207275,1.0,0.88,0.0001
1450,0.31332844495773315,0.431547075510025,1.0,0.88,0.0001
1451,0.3133287727832794,0.43156036734580994,1.0,0.88,0.0001
1452,0.3133305609226227,0.4315815269947052,1.0,0.88,0.0001
1453,0.3133275508880615,0.4316161870956421,1.0,0.88,0.0001
1454,0.3133263885974884,0.43156346678733826,1.0,0.88,0.0001
1455,0.3133281469345093,0.4316452145576477,1.0,0.88,0.0001
1456,0.3133270740509033,0.4316641688346863,1.0,0.88,0.0001
1457,0.3133270740509033,0.4316859841346741,1.0,0.88,0.0001
1458,0.313327431678772,0.4316810965538025,1.0,0.88,0.0001
1459,0.3133261501789093,0.43174847960472107,1.0,0.88,0.0001
1460,0.3133266866207123,0.43174707889556885,1.0,0.88,0.0001
1461,0.3133281469345093,0.4317624568939209,1.0,0.88,0.0001
1462,0.313325971364975,0.4317891001701355,1.0,0.88,0.0001
1463,0.31333211064338684,0.431736022233963,1.0,0.88,0.0001
1464,0.31333088874816895,0.4317140579223633,1.0,0.88,0.0001
1465,0.31332987546920776,0.43177083134651184,1.0,0.88,0.0001
1466,0.31333017349243164,0.43171143531799316,1.0,0.88,0.0001
1467,0.31332889199256897,0.43171966075897217,1.0,0.88,0.0001
1468,0.31332629919052124,0.43167436122894287,1.0,0.88,0.0001
1469,0.3133270740509033,0.4316670894622803,1.0,0.88,0.0001
1470,0.3133285641670227,0.43172603845596313,1.0,0.88,0.0001
1471,0.31332889199256897,0.43174538016319275,1.0,0.88,0.0001
1472,0.3133292496204376,0.4316713213920593,1.0,0.88,0.0001
1473,0.31332942843437195,0.43173110485076904,1.0,0.88,0.0001
1474,0.31332919001579285,0.431766152381897,1.0,0.88,0.0001
1475,0.3133256435394287,0.4317626953125,1.0,0.88,0.0001
1476,0.3133276104927063,0.43175163865089417,1.0,0.88,0.0001
1477,0.31332966685295105,0.43175816535949707,1.0,0.88,0.0001
1478,0.3133288621902466,0.4317530691623688,1.0,0.88,0.0001
1479,0.31332603096961975,0.43176159262657166,1.0,0.88,0.0001
1480,0.3133297860622406,0.4316592812538147,1.0,0.88,0.0001
1481,0.31332799792289734,0.4316122531890869,1.0,0.88,0.0001
1482,0.3133271336555481,0.43167588114738464,1.0,0.88,0.0001
1483,0.3133264183998108,0.43166324496269226,1.0,0.88,0.0001
1484,0.31332629919052124,0.4316673278808594,1.0,0.88,0.0001
1485,0.31332775950431824,0.43165457248687744,1.0,0.88,0.0001
1486,0.3133299648761749,0.4316549599170685,1.0,0.88,0.0001
1487,0.3133293390274048,0.43159019947052,1.0,0.88,0.0001
1488,0.31332480907440186,0.4315931797027588,1.0,0.88,0.0001
1489,0.3133261501789093,0.4315960705280304,1.0,0.88,0.0001
1490,0.3133286237716675,0.4317227900028229,1.0,0.88,0.0001
1491,0.3133249580860138,0.4317435920238495,1.0,0.88,0.0001
1492,0.3133305013179779,0.4317488372325897,1.0,0.88,0.0001
1493,0.31332823634147644,0.431762158870697,1.0,0.88,0.0001
1494,0.31332704424858093,0.4317013919353485,1.0,0.88,0.0001
1495,0.3133251965045929,0.43176937103271484,1.0,0.88,0.0001
1496,0.31332340836524963,0.43178221583366394,1.0,0.88,0.0001
1497,0.31332844495773315,0.4317920207977295,1.0,0.88,0.0001
1498,0.31332531571388245,0.43178829550743103,1.0,0.88,0.0001
1499,0.31332552433013916,0.4318028390407562,1.0,0.88,0.0001
1500,0.31332480907440186,0.431782603263855,1.0,0.88,0.0001
1501,0.3133280873298645,0.43178045749664307,1.0,0.88,0.0001
1502,0.31332844495773315,0.43176278471946716,1.0,0.88,0.0001
1503,0.3133283853530884,0.431705504655838,1.0,0.88,0.0001
1504,0.31332993507385254,0.4316876530647278,1.0,0.88,0.0001
1505,0.31332746148109436,0.43175190687179565,1.0,0.88,0.0001
1506,0.31332632899284363,0.43174347281455994,1.0,0.88,0.0001
1507,0.3133283257484436,0.43174758553504944,1.0,0.88,0.0001
1508,0.31332671642303467,0.4317654073238373,1.0,0.88,0.0001
1509,0.31332603096961975,0.4317491054534912,1.0,0.88,0.0001
1510,0.31332698464393616,0.4317696690559387,1.0,0.88,0.0001
1511,0.3133280277252197,0.4317113161087036,1.0,0.88,0.0001
1512,0.31333088874816895,0.43170517683029175,1.0,0.88,0.0001
1513,0.3133246898651123,0.43170982599258423,1.0,0.88,0.0001
1514,0.31332558393478394,0.4316689670085907,1.0,0.88,0.0001
1515,0.3133241832256317,0.4317300319671631,1.0,0.88,0.0001
1516,0.31332680583000183,0.43172794580459595,1.0,0.88,0.0001
1517,0.31332769989967346,0.431723028421402,1.0,0.88,0.0001
1518,0.3133242130279541,0.4317229390144348,1.0,0.88,0.0001
1519,0.3133295476436615,0.43173137307167053,1.0,0.88,0.0001
1520,0.3133271634578705,0.43174517154693604,1.0,0.88,0.0001
1521,0.3133254647254944,0.43174904584884644,1.0,0.88,0.0001
1522,0.3133266568183899,0.43176478147506714,1.0,0.88,0.0001
1523,0.31332576274871826,0.43177565932273865,1.0,0.88,0.0001
1524,0.31332695484161377,0.4317771792411804,1.0,0.88,0.0001
1525,0.31332412362098694,0.4317683279514313,1.0,0.88,0.0001
1526,0.31332606077194214,0.4317554235458374,1.0,0.88,0.0001
1527,0.31332457065582275,0.43173748254776,1.0,0.88,0.0001
1528,0.31332600116729736,0.4317365884780884,1.0,0.88,0.0001
1529,0.31332769989967346,0.431696355342865,1.0,0.88,0.0001
1530,0.3133253753185272,0.43169280886650085,1.0,0.88,0.0001
1531,0.31332409381866455,0.4317147731781006,1.0,0.88,0.0001
1532,0.31332463026046753,0.4317290186882019,1.0,0.88,0.0001
1533,0.31332623958587646,0.43171441555023193,1.0,0.88,0.0001
1534,0.31332287192344666,0.4317633807659149,1.0,0.88,0.0001
1535,0.31332623958587646,0.4317783713340759,1.0,0.88,0.0001
1536,0.313327431678772,0.43178150057792664,1.0,0.88,0.0001
1537,0.3133264482021332,0.4318041205406189,1.0,0.88,0.0001
1538,0.31332454085350037,0.43181899189949036,1.0,0.88,0.0001
1539,0.31332480907440186,0.4317634701728821,1.0,0.88,0.0001
1540,0.31332698464393616,0.431778222322464,1.0,0.88,0.0001
1541,0.3133265972137451,0.43174639344215393,1.0,0.88,0.0001
1542,0.31332841515541077,0.43182921409606934,1.0,0.88,0.0001
1543,0.3133246600627899,0.43181830644607544,1.0,0.88,0.0001
1544,0.31332457065582275,0.4318001866340637,1.0,0.88,0.0001
1545,0.3133273422718048,0.4317961037158966,1.0,0.88,0.0001
1546,0.31332433223724365,0.4317903518676758,1.0,0.88,0.0001
1547,0.3133251667022705,0.43178391456604004,1.0,0.88,0.0001
1548,0.3133288621902466,0.43177223205566406,1.0,0.88,0.0001
1549,0.3133234977722168,0.43176138401031494,1.0,0.88,0.0001
1550,0.3133239448070526,0.43176162242889404,1.0,0.88,0.0001
1551,0.3133249580860138,0.4317620098590851,1.0,0.88,0.0001
1552,0.31332340836524963,0.43170639872550964,1.0,0.88,0.0001
1553,0.3133274018764496,0.4316530227661133,1.0,0.88,0.0001
1554,0.3133261203765869,0.43172481656074524,1.0,0.88,0.0001
1555,0.3133276104927063,0.43170273303985596,1.0,0.88,0.0001
1556,0.31332162022590637,0.43169257044792175,1.0,0.88,0.0001
1557,0.31332457065582275,0.43166980147361755,1.0,0.88,0.0001
1558,0.3133262097835541,0.431675523519516,1.0,0.88,0.0001
1559,0.31332457065582275,0.4315979778766632,1.0,0.88,0.0001
1560,0.3133236765861511,0.4315887689590454,1.0,0.88,0.0001
1561,0.3133263885974884,0.43161070346832275,1.0,0.88,0.0001
1562,0.31332433223724365,0.43157944083213806,1.0,0.88,0.0001
1563,0.3133223354816437,0.4316789507865906,1.0,0.88,0.0001
1564,0.3133227527141571,0.4316890835762024,1.0,0.88,0.0001
1565,0.3133254647254944,0.43168583512306213,1.0,0.88,0.0001
1566,0.3133241534233093,0.4317106008529663,1.0,0.88,0.0001
1567,0.3133235275745392,0.4316963851451874,1.0,0.88,0.0001
1568,0.3133266270160675,0.4316648840904236,1.0,0.88,0.0001
1569,0.31332725286483765,0.43173912167549133,1.0,0.88,0.0001
1570,0.31332558393478394,0.4317464828491211,1.0,0.88,0.0001
1571,0.313327819108963,0.4317496418952942,1.0,0.88,0.0001
1572,0.31332728266716003,0.43176132440567017,1.0,0.88,0.0001
1573,0.31332600116729736,0.4317561686038971,1.0,0.88,0.0001
1574,0.3133237063884735,0.4317682385444641,1.0,0.88,0.0001
1575,0.3133244514465332,0.4317930340766907,1.0,0.88,0.0001
1576,0.313326358795166,0.43175387382507324,1.0,0.88,0.0001
1577,0.31332358717918396,0.431782603263855,1.0,0.88,0.0001
1578,0.3133254945278168,0.43173035979270935,1.0,0.88,0.0001
1579,0.31332647800445557,0.4317881464958191,1.0,0.88,0.0001
1580,0.31332463026046753,0.431776762008667,1.0,0.88,0.0001
1581,0.31332409381866455,0.43178340792655945,1.0,0.88,0.0001
1582,0.31332263350486755,0.43179649114608765,1.0,0.88,0.0001
1583,0.3133265972137451,0.43175801634788513,1.0,0.88,0.0001
1584,0.3133251965045929,0.43171581625938416,1.0,0.88,0.0001
1585,0.3133220076560974,0.4317689538002014,1.0,0.88,0.0001
1586,0.3133282959461212,0.4317546784877777,1.0,0.88,0.0001
1587,0.31332433223724365,0.4317423105239868,1.0,0.88,0.0001
1588,0.313324898481369,0.4317241311073303,1.0,0.88,0.0001
1589,0.3133215308189392,0.4317176043987274,1.0,0.88,0.0001
1590,0.31332191824913025,0.43172723054885864,1.0,0.88,0.0001
1591,0.3133222758769989,0.43170222640037537,1.0,0.88,0.0001
1592,0.31332507729530334,0.4317046105861664,1.0,0.88,0.0001
1593,0.31332486867904663,0.431690514087677,1.0,0.88,0.0001
1594,0.31332436203956604,0.43168213963508606,1.0,0.88,0.0001
1595,0.31332457065582275,0.4316745102405548,1.0,0.88,0.0001
1596,0.31332680583000183,0.43168017268180847,1.0,0.88,0.0001
1597,0.3133237957954407,0.4316917359828949,1.0,0.88,0.0001
1598,0.31332769989967346,0.43169689178466797,1.0,0.88,0.0001
1599,0.3133256137371063,0.4317057132720947,1.0,0.88,0.0001
1600,0.3133244216442108,0.4317172169685364,1.0,0.88,0.0001
1601,0.3133242130279541,0.43173354864120483,1.0,0.88,0.0001
1602,0.3133220076560974,0.43173277378082275,1.0,0.88,0.0001
1603,0.31332170963287354,0.4317127466201782,1.0,0.88,0.0001
1604,0.3133246898651123,0.43172022700309753,1.0,0.88,0.0001
1605,0.31332382559776306,0.4317086338996887,1.0,0.88,0.0001
1606,0.3133257031440735,0.43170222640037537,1.0,0.88,0.0001
1607,0.31332188844680786,0.4316902458667755,1.0,0.88,0.0001
1608,0.3133251965045929,0.43168625235557556,1.0,0.88,0.0001
1609,0.31332290172576904,0.4316681921482086,1.0,0.88,0.0001
1610,0.31332170963287354,0.431679368019104,1.0,0.88,0.0001
1611,0.3133258521556854,0.43169674277305603,1.0,0.88,0.0001
1612,0.3133242130279541,0.4316444396972656,1.0,0.88,0.0001
1613,0.31332334876060486,0.4316650331020355,1.0,0.88,0.0001
1614,0.3133262097835541,0.43165770173072815,1.0,0.88,0.0001
1615,0.3133242726325989,0.43165233731269836,1.0,0.88,0.0001
1616,0.31332483887672424,0.43173640966415405,1.0,0.88,0.0001
1617,0.3133244812488556,0.43173596262931824,1.0,0.88,0.0001
1618,0.3133277893066406,0.4317600131034851,1.0,0.88,0.0001
1619,0.3133244216442108,0.43176978826522827,1.0,0.88,0.0001
1620,0.3133234679698944,0.4317544996738434,1.0,0.88,0.0001
1621,0.3133191764354706,0.43175891041755676,1.0,0.88,0.0001
1622,0.3133220076560974,0.4317527711391449,1.0,0.88,0.0001
1623,0.31332772970199585,0.431761234998703,1.0,0.88,0.0001
1624,0.3133240342140198,0.43174535036087036,1.0,0.88,0.0001
1625,0.3133234977722168,0.4317384660243988,1.0,0.88,0.0001
1626,0.31332501769065857,0.43173521757125854,1.0,0.88,0.0001
1627,0.31332114338874817,0.4317222535610199,1.0,0.88,0.0001
1628,0.3133243918418884,0.43171676993370056,1.0,0.88,0.0001
1629,0.3133205473423004,0.4317016899585724,1.0,0.88,0.0001
1630,0.313324898481369,0.4317229092121124,1.0,0.88,0.0001
1631,0.3133258521556854,0.43164578080177307,1.0,0.88,0.0001
1632,0.31332263350486755,0.431599885225296,1.0,0.88,0.0001
1633,0.3133220970630646,0.4316026270389557,1.0,0.88,0.0001
1634,0.3133227825164795,0.4315861463546753,1.0,0.88,0.0001
1635,0.31332576274871826,0.4315789043903351,1.0,0.88,0.0001
1636,0.31332263350486755,0.431558221578598,1.0,0.88,0.0001
1637,0.3133224844932556,0.4316061735153198,1.0,0.88,0.0001
1638,0.3133246898651123,0.4316309988498688,1.0,0.88,0.0001
1639,0.3133242726325989,0.431618869304657,1.0,0.88,0.0001
1640,0.31332215666770935,0.43163001537323,1.0,0.88,0.0001
1641,0.31332358717918396,0.4316296875476837,1.0,0.88,0.0001
1642,0.31332412362098694,0.43163979053497314,1.0,0.88,0.0001
1643,0.31332606077194214,0.4316379427909851,1.0,0.88,0.0001
1644,0.31332385540008545,0.43169012665748596,1.0,0.88,0.0001
1645,0.31332460045814514,0.4316365718841553,1.0,0.88,0.0001
1646,0.31332314014434814,0.43162286281585693,1.0,0.88,0.0001
1647,0.31332486867904663,0.431705117225647,1.0,0.88,0.0001
1648,0.313321977853775,0.43171897530555725,1.0,0.88,0.0001
1649,0.31332388520240784,0.4317113161087036,1.0,0.88,0.0001
1650,0.31332120299339294,0.4317226707935333,1.0,0.88,0.0001
1651,0.3133254647254944,0.43174171447753906,1.0,0.88,0.0001
1652,0.3133232593536377,0.4317280948162079,1.0,0.88,0.0001
1653,0.31332600116729736,0.43175065517425537,1.0,0.88,0.0001
1654,0.31332719326019287,0.431761234998703,1.0,0.88,0.0001
1655,0.31332191824913025,0.43179431557655334,1.0,0.88,0.0001
1656,0.313321977853775,0.43175387382507324,1.0,0.88,0.0001
1657,0.31332406401634216,0.4317364990711212,1.0,0.88,0.0001
1658,0.313320517539978,0.43173766136169434,1.0,0.88,0.0001
1659,0.3133211135864258,0.4317255914211273,1.0,0.88,0.0001
1660,0.31332314014434814,0.43170830607414246,1.0,0.88,0.0001
1661,0.31332194805145264,0.4316765069961548,1.0,0.88,0.0001
1662,0.31332018971443176,0.4317145049571991,1.0,0.88,0.0001
1663,0.31332287192344666,0.43169718980789185,1.0,0.88,0.0001
1664,0.3133239448070526,0.4316726624965668,1.0,0.88,0.0001
1665,0.3133240044116974,0.4316590130329132,1.0,0.88,0.0001
1666,0.31332188844680786,0.43166396021842957,1.0,0.88,0.0001
1667,0.31332290172576904,0.43166279792785645,1.0,0.88,0.0001
1668,0.31332218647003174,0.43165913224220276,1.0,0.88,0.0001
1669,0.3133227527141571,0.4316573441028595,1.0,0.88,0.0001
1670,0.31332337856292725,0.4316435754299164,1.0,0.88,0.0001
1671,0.31332114338874817,0.4316340982913971,1.0,0.88,0.0001
1672,0.3133229911327362,0.4316144287586212,1.0,0.88,0.0001
1673,0.31332406401634216,0.43161293864250183,1.0,0.88,0.0001
1674,0.3133196532726288,0.43160489201545715,1.0,0.88,0.0001
1675,0.3133228123188019,0.431601881980896,1.0,0.88,0.0001
1676,0.31332188844680786,0.4315894842147827,1.0,0.88,0.0001
1677,0.31332433223724365,0.43160951137542725,1.0,0.88,0.0001
1678,0.3133242130279541,0.4315440356731415,1.0,0.88,0.0001
1679,0.3133232593536377,0.43152210116386414,1.0,0.88,0.0001
1680,0.3133220970630646,0.4315888583660126,1.0,0.88,0.0001
1681,0.31332358717918396,0.43160274624824524,1.0,0.88,0.0001
1682,0.3133190870285034,0.4316154718399048,1.0,0.88,0.0001
1683,0.3133220970630646,0.4316185712814331,1.0,0.88,0.0001
1684,0.3133218288421631,0.4316425323486328,1.0,0.88,0.0001
1685,0.313320517539978,0.43164417147636414,1.0,0.88,0.0001
1686,0.3133210241794586,0.43164390325546265,1.0,0.88,0.0001
1687,0.3133224546909332,0.43163958191871643,1.0,0.88,0.0001
1688,0.3133220970630646,0.43162086606025696,1.0,0.88,0.0001
1689,0.3133229911327362,0.4316372573375702,1.0,0.88,0.0001
1690,0.31332194805145264,0.4316422641277313,1.0,0.88,0.0001
1691,0.3133231997489929,0.4316335916519165,1.0,0.88,0.0001
1692,0.31331852078437805,0.4316409230232239,1.0,0.88,0.0001
1693,0.31332212686538696,0.4316306710243225,1.0,0.88,0.0001
1694,0.3133183717727661,0.43166840076446533,1.0,0.88,0.0001
1695,0.3133210837841034,0.43159931898117065,1.0,0.88,0.0001
1696,0.31332147121429443,0.4316054582595825,1.0,0.88,0.0001
1697,0.31332409381866455,0.43159621953964233,1.0,0.88,0.0001
1698,0.31332406401634216,0.431665301322937,1.0,0.88,0.0001
1699,0.31332075595855713,0.43169257044792175,1.0,0.88,0.0001
1700,0.31332090497016907,0.4316978454589844,1.0,0.88,0.0001
1701,0.3133198618888855,0.4316955506801605,1.0,0.88,0.0001
1702,0.3133249580860138,0.431619793176651,1.0,0.88,0.0001
1703,0.3133224546909332,0.4316973090171814,1.0,0.88,0.0001
1704,0.3133208751678467,0.4316955506801605,1.0,0.88,0.0001
1705,0.313320130109787,0.43168124556541443,1.0,0.88,0.0001
1706,0.31332170963287354,0.4317145049571991,1.0,0.88,0.0001
1707,0.3133212924003601,0.43163779377937317,1.0,0.88,0.0001
1708,0.31332024931907654,0.43159523606300354,1.0,0.88,0.0001
1709,0.313320517539978,0.4316629469394684,1.0,0.88,0.0001
1710,0.31332162022590637,0.4316835403442383,1.0,0.88,0.0001
1711,0.3133231997489929,0.4316151738166809,1.0,0.88,0.0001
1712,0.3133215606212616,0.43157172203063965,1.0,0.88,0.0001
1713,0.31331971287727356,0.4316409230232239,1.0,0.88,0.0001
1714,0.3133224844932556,0.4316335618495941,1.0,0.88,0.0001
1715,0.3133206069469452,0.43163830041885376,1.0,0.88,0.0001
1716,0.3133188486099243,0.4316529333591461,1.0,0.88,0.0001
1717,0.31332287192344666,0.43166959285736084,1.0,0.88,0.0001
1718,0.31332147121429443,0.4315861165523529,1.0,0.88,0.0001
1719,0.3133237957954407,0.43158602714538574,1.0,0.88,0.0001
1720,0.31332212686538696,0.431605726480484,1.0,0.88,0.0001
1721,0.31331929564476013,0.43159034848213196,1.0,0.88,0.0001
1722,0.3133220672607422,0.43166905641555786,1.0,0.88,0.0001
1723,0.3133215010166168,0.43166041374206543,1.0,0.88,0.0001
1724,0.3133208751678467,0.431661456823349,1.0,0.88,0.0001
1725,0.3133182227611542,0.4316517114639282,1.0,0.88,0.0001
1726,0.3133193254470825,0.4316651225090027,1.0,0.88,0.0001
1727,0.3133220672607422,0.4316789209842682,1.0,0.88,0.0001
1728,0.3133198022842407,0.4316561818122864,1.0,0.88,0.0001
1729,0.3133210241794586,0.4316805899143219,1.0,0.88,0.0001
1730,0.3133223056793213,0.43167629837989807,1.0,0.88,0.0001
1731,0.3133205771446228,0.4316801130771637,1.0,0.88,0.0001
1732,0.31332215666770935,0.4316808581352234,1.0,0.88,0.0001
1733,0.3133208751678467,0.4316888451576233,1.0,0.88,0.0001
1734,0.31331953406333923,0.43167251348495483,1.0,0.88,0.0001
1735,0.3133198618888855,0.4316816031932831,1.0,0.88,0.0001
1736,0.31332096457481384,0.4316728711128235,1.0,0.88,0.0001
1737,0.3133203089237213,0.4316735863685608,1.0,0.88,0.0001
1738,0.3133190870285034,0.4316684305667877,1.0,0.88,0.0001
1739,0.313323050737381,0.43168753385543823,1.0,0.88,0.0001
1740,0.3133193552494049,0.43169769644737244,1.0,0.88,0.0001
1741,0.31332188844680786,0.43168994784355164,1.0,0.88,0.0001
1742,0.31332162022590637,0.4316880702972412,1.0,0.88,0.0001
1743,0.3133196234703064,0.43168410658836365,1.0,0.88,0.0001
1744,0.313320130109787,0.4316975474357605,1.0,0.88,0.0001
1745,0.31331920623779297,0.4317069947719574,1.0,0.88,0.0001
1746,0.31331783533096313,0.4317196309566498,1.0,0.88,0.0001
1747,0.3133207857608795,0.43171337246894836,1.0,0.88,0.0001
1748,0.31332138180732727,0.43170279264450073,1.0,0.88,0.0001
1749,0.3133223056793213,0.431700199842453,1.0,0.88,0.0001
1750,0.3133188486099243,0.4316902160644531,1.0,0.88,0.0001
1751,0.3133190870285034,0.43167200684547424,1.0,0.88,0.0001
1752,0.3133199214935303,0.43163636326789856,1.0,0.88,0.0001
1753,0.31332045793533325,0.4316287934780121,1.0,0.88,0.0001
1754,0.31331631541252136,0.4316193759441376,1.0,0.88,0.0001
1755,0.31331753730773926,0.43158650398254395,1.0,0.88,0.0001
1756,0.31331947445869446,0.43156129121780396,1.0,0.88,0.0001
1757,0.3133203983306885,0.43155956268310547,1.0,0.88,0.0001
1758,0.3133210837841034,0.431574285030365,1.0,0.88,0.0001
1759,0.31331872940063477,0.43155550956726074,1.0,0.88,0.0001
1760,0.31331878900527954,0.43155643343925476,1.0,0.88,0.0001
1761,0.31331923604011536,0.4315534234046936,1.0,0.88,0.0001
1762,0.31331950426101685,0.4315566122531891,1.0,0.88,0.0001
1763,0.3133215606212616,0.43154895305633545,1.0,0.88,0.0001
1764,0.31331944465637207,0.43155428767204285,1.0,0.88,0.0001
1765,0.3133169114589691,0.4316023290157318,1.0,0.88,0.0001
1766,0.3133218288421631,0.43151021003723145,1.0,0.88,0.0001
1767,0.3133212924003601,0.4315759539604187,1.0,0.88,0.0001
1768,0.3133196234703064,0.43157804012298584,1.0,0.88,0.0001
1769,0.3133203089237213,0.4315912127494812,1.0,0.88,0.0001
1770,0.31331926584243774,0.43160519003868103,1.0,0.88,0.0001
1771,0.313320517539978,0.43157973885536194,1.0,0.88,0.0001
1772,0.3133174777030945,0.4315662682056427,1.0,0.88,0.0001
1773,0.3133193850517273,0.43156906962394714,1.0,0.88,0.0001
1774,0.31331977248191833,0.4315592050552368,1.0,0.88,0.0001
1775,0.3133201599121094,0.43155741691589355,1.0,0.88,0.0001
1776,0.31331926584243774,0.4315637946128845,1.0,0.88,0.0001
1777,0.3133178651332855,0.4315665066242218,1.0,0.88,0.0001
1778,0.3133213222026825,0.43157824873924255,1.0,0.88,0.0001
1779,0.31332024931907654,0.43157264590263367,1.0,0.88,0.0001
1780,0.31331831216812134,0.4315875172615051,1.0,0.88,0.0001
1781,0.31331801414489746,0.4315839409828186,1.0,0.88,0.0001
1782,0.3133200407028198,0.43159615993499756,1.0,0.88,0.0001
1783,0.3133208155632019,0.43153417110443115,1.0,0.88,0.0001
1784,0.3133212924003601,0.4315277338027954,1.0,0.88,0.0001
1785,0.3133178949356079,0.4315032660961151,1.0,0.88,0.0001
1786,0.31331902742385864,0.4315926432609558,1.0,0.88,0.0001
1787,0.3133193552494049,0.43159881234169006,1.0,0.88,0.0001
1788,0.3133184611797333,0.4315307140350342,1.0,0.88,0.0001
1789,0.31331825256347656,0.4314959645271301,1.0,0.88,0.0001
1790,0.3133193850517273,0.4315844774246216,1.0,0.88,0.0001
1791,0.3133184611797333,0.43160781264305115,1.0,0.88,0.0001
1792,0.31331923604011536,0.43161654472351074,1.0,0.88,0.0001
1793,0.31332117319107056,0.43162551522254944,1.0,0.88,0.0001
1794,0.31331953406333923,0.4315483570098877,1.0,0.88,0.0001
1795,0.31331923604011536,0.4315212666988373,1.0,0.88,0.0001
