,train loss,val loss,train acc,val acc,lr
0,0.6743401885032654,0.6677958965301514,0.6,0.64,0.001
1,0.6535289883613586,0.6589155793190002,0.68,0.64,0.001
2,0.6477018594741821,0.6520472764968872,0.71,0.64,0.001
3,0.6459080576896667,0.6470317840576172,0.67,0.64,0.001
4,0.6150406002998352,0.6439141631126404,0.71,0.64,0.001
5,0.6098366975784302,0.642825186252594,0.69,0.64,0.001
6,0.611372172832489,0.6436481475830078,0.69,0.64,0.001
7,0.597994863986969,0.6455326080322266,0.7,0.64,0.001
8,0.6047595739364624,0.6469465494155884,0.69,0.64,0.001
9,0.5954408645629883,0.6466243863105774,0.7,0.64,0.001
10,0.6031818389892578,0.6431142687797546,0.69,0.64,0.001
11,0.5899310111999512,0.6364431977272034,0.68,0.64,0.001
12,0.5804622173309326,0.6282862424850464,0.69,0.64,0.001
13,0.5765015482902527,0.6210578680038452,0.71,0.62,0.001
14,0.5615800023078918,0.6151430606842041,0.73,0.61,0.001
15,0.5638005137443542,0.6104804277420044,0.72,0.68,0.001
16,0.5585761070251465,0.6063099503517151,0.78,0.7,0.001
17,0.5554845929145813,0.6017496585845947,0.77,0.69,0.001
18,0.5484121441841125,0.5957877039909363,0.79,0.73,0.001
19,0.541811466217041,0.5905623435974121,0.8,0.73,0.001
20,0.5346570014953613,0.5897756814956665,0.78,0.72,0.001
21,0.5289398431777954,0.5836937427520752,0.78,0.72,0.001
22,0.529163658618927,0.5796290040016174,0.79,0.7,0.001
23,0.5228016376495361,0.580085039138794,0.78,0.7,0.001
24,0.5110170841217041,0.5836081504821777,0.82,0.71,0.001
25,0.5181488990783691,0.5758817791938782,0.81,0.73,0.001
26,0.5270555019378662,0.5888184905052185,0.78,0.73,0.001
27,0.522287130355835,0.5795009136199951,0.78,0.73,0.001
28,0.5204113125801086,0.5770259499549866,0.78,0.73,0.001
29,0.5264585018157959,0.5870162844657898,0.77,0.73,0.001
30,0.5231342911720276,0.5971848964691162,0.79,0.69,0.001
31,0.5283218622207642,0.5784316062927246,0.77,0.73,0.001
32,0.5236087441444397,0.5716297626495361,0.79,0.73,0.001
33,0.5224959850311279,0.5773561000823975,0.8,0.72,0.001
34,0.5085201859474182,0.5903915166854858,0.82,0.71,0.001
35,0.5187882781028748,0.5974278450012207,0.79,0.69,0.001
36,0.5312628149986267,0.5906128287315369,0.77,0.7,0.001
37,0.516768217086792,0.576640784740448,0.8,0.72,0.001
38,0.5058937668800354,0.5806880593299866,0.82,0.73,0.001
39,0.5150445699691772,0.581214964389801,0.8,0.71,0.001
40,0.5347070693969727,0.577983021736145,0.76,0.7,0.001
41,0.5114259719848633,0.5781388878822327,0.8,0.71,0.001
42,0.5238726139068604,0.5818595290184021,0.79,0.73,0.001
43,0.520682692527771,0.5839032530784607,0.79,0.71,0.001
44,0.5220624804496765,0.5814303755760193,0.78,0.73,0.001
45,0.5069565773010254,0.5769518613815308,0.8,0.71,0.001
46,0.502429723739624,0.5749374628067017,0.81,0.71,0.001
47,0.5063360333442688,0.5748294591903687,0.8,0.72,0.001
48,0.5076395273208618,0.5734074115753174,0.8,0.72,0.001
49,0.49696099758148193,0.5702691078186035,0.8,0.72,0.001
50,0.49637913703918457,0.5671267509460449,0.81,0.73,0.001
51,0.4839400053024292,0.5640500783920288,0.85,0.73,0.001
52,0.48292991518974304,0.557706356048584,0.83,0.73,0.001
53,0.4860774278640747,0.5501012206077576,0.82,0.74,0.001
54,0.48287373781204224,0.5447608828544617,0.84,0.74,0.001
55,0.46984943747520447,0.542012631893158,0.83,0.74,0.001
56,0.47936683893203735,0.5313003659248352,0.82,0.77,0.001
57,0.46506989002227783,0.5257028341293335,0.86,0.78,0.001
58,0.45250651240348816,0.5313341021537781,0.87,0.76,0.001
59,0.4565594494342804,0.5265820026397705,0.86,0.78,0.001
60,0.48331010341644287,0.5194239616394043,0.83,0.79,0.001
61,0.44445931911468506,0.5514837503433228,0.87,0.73,0.001
62,0.48763328790664673,0.5160372853279114,0.82,0.8,0.001
63,0.4398477077484131,0.5261275768280029,0.88,0.78,0.001
64,0.47918787598609924,0.5189622640609741,0.81,0.79,0.001
65,0.45479968190193176,0.5296695828437805,0.86,0.77,0.001
66,0.4486864507198334,0.540493905544281,0.87,0.75,0.001
67,0.456468403339386,0.5425652861595154,0.85,0.75,0.001
68,0.46016383171081543,0.5222890377044678,0.84,0.78,0.001
69,0.43372875452041626,0.5187656879425049,0.88,0.79,0.001
70,0.44763800501823425,0.5203933715820312,0.87,0.79,0.001
71,0.44945579767227173,0.5190255641937256,0.87,0.79,0.001
72,0.446038156747818,0.5203549265861511,0.87,0.79,0.001
73,0.4483505189418793,0.5244922637939453,0.88,0.77,0.001
74,0.4215582013130188,0.5315202474594116,0.9,0.76,0.001
75,0.44057291746139526,0.5188556909561157,0.88,0.78,0.001
76,0.44471171498298645,0.5173309445381165,0.88,0.8,0.001
77,0.44225379824638367,0.5130132436752319,0.88,0.79,0.001
78,0.4288893938064575,0.5116472840309143,0.88,0.79,0.001
79,0.4352185130119324,0.5214536786079407,0.89,0.79,0.001
80,0.4384911358356476,0.5256938338279724,0.87,0.76,0.001
81,0.43670108914375305,0.5200406908988953,0.88,0.78,0.001
82,0.4366830885410309,0.512193500995636,0.89,0.79,0.001
83,0.43432289361953735,0.5081117153167725,0.89,0.8,0.001
84,0.4388284981250763,0.5105836987495422,0.88,0.79,0.001
85,0.4332326650619507,0.5098901987075806,0.9,0.79,0.001
86,0.4308723509311676,0.5095256567001343,0.88,0.8,0.001
87,0.4352492094039917,0.5163607597351074,0.9,0.78,0.001
88,0.4253658056259155,0.519778311252594,0.9,0.78,0.001
89,0.43106377124786377,0.5201330184936523,0.9,0.78,0.001
90,0.4292997121810913,0.5117350220680237,0.9,0.8,0.001
91,0.4212619662284851,0.5087536573410034,0.89,0.79,0.001
92,0.4297916293144226,0.509223997592926,0.88,0.8,0.001
93,0.4337523579597473,0.507571280002594,0.88,0.8,0.001
94,0.4280489981174469,0.519119918346405,0.9,0.78,0.001
95,0.4370650351047516,0.525110125541687,0.88,0.78,0.001
96,0.4362727105617523,0.526207447052002,0.88,0.77,0.001
97,0.4263452887535095,0.5062909126281738,0.89,0.8,0.001
98,0.42322617769241333,0.5112887620925903,0.9,0.8,0.001
99,0.4394053518772125,0.5118845105171204,0.88,0.8,0.001
100,0.4451051950454712,0.5048105716705322,0.87,0.8,0.001
101,0.42053505778312683,0.511868953704834,0.9,0.8,0.001
102,0.42424434423446655,0.5364932417869568,0.9,0.76,0.001
103,0.42868030071258545,0.5353920459747314,0.91,0.76,0.001
104,0.4265633523464203,0.5271677374839783,0.89,0.77,0.001
105,0.4218340218067169,0.5149931311607361,0.9,0.79,0.001
106,0.4248814880847931,0.5041786432266235,0.9,0.81,0.001
107,0.4208309054374695,0.5043681859970093,0.9,0.8,0.001
108,0.4276581108570099,0.5034072399139404,0.9,0.8,0.001
109,0.42530959844589233,0.5087399482727051,0.9,0.8,0.001
110,0.4187261462211609,0.5456181764602661,0.89,0.73,0.001
111,0.42936328053474426,0.5452840924263,0.89,0.74,0.001
112,0.4348895251750946,0.5225878357887268,0.88,0.78,0.001
113,0.425437331199646,0.5152406096458435,0.88,0.78,0.001
114,0.4298478066921234,0.5089444518089294,0.9,0.8,0.001
115,0.42941048741340637,0.507036030292511,0.88,0.8,0.001
116,0.4173294007778168,0.5077486038208008,0.9,0.79,0.001
117,0.4179610013961792,0.5078052878379822,0.9,0.8,0.001
118,0.42755770683288574,0.5074099898338318,0.88,0.8,0.001
119,0.42889603972435,0.50886070728302,0.89,0.8,0.001
120,0.42290985584259033,0.5167050361633301,0.9,0.78,0.001
121,0.4227473735809326,0.5195878148078918,0.89,0.78,0.001
122,0.4166155755519867,0.5279237031936646,0.9,0.78,0.001
123,0.41719263792037964,0.543556272983551,0.9,0.76,0.001
124,0.4228650629520416,0.5192164778709412,0.89,0.78,0.001
125,0.4178863763809204,0.5122606754302979,0.89,0.79,0.001
126,0.42282047867774963,0.5083872079849243,0.9,0.8,0.001
127,0.43345698714256287,0.5063761472702026,0.88,0.8,0.001
128,0.420441597700119,0.5043531656265259,0.9,0.81,0.001
129,0.42747196555137634,0.5173044800758362,0.88,0.8,0.001
130,0.43344199657440186,0.5290287137031555,0.87,0.77,0.001
131,0.4239526093006134,0.5256145596504211,0.89,0.76,0.001
132,0.4289628267288208,0.5242505073547363,0.89,0.77,0.001
133,0.4372227191925049,0.5176423788070679,0.87,0.78,0.001
134,0.42414116859436035,0.5079183578491211,0.89,0.81,0.001
135,0.42813563346862793,0.5035425424575806,0.88,0.82,0.001
136,0.4312377870082855,0.5030826330184937,0.88,0.8,0.001
137,0.4229954481124878,0.510154664516449,0.9,0.8,0.001
138,0.4337254762649536,0.5063995718955994,0.88,0.8,0.001
139,0.41817206144332886,0.5303940773010254,0.9,0.78,0.001
140,0.42894336581230164,0.5437032580375671,0.89,0.74,0.001
141,0.4339638948440552,0.5035063028335571,0.88,0.8,0.001
142,0.427852988243103,0.522407054901123,0.88,0.79,0.001
143,0.4711564779281616,0.5138506889343262,0.83,0.8,0.001
144,0.4601944386959076,0.5054847598075867,0.86,0.8,0.001
145,0.42490261793136597,0.5619613528251648,0.89,0.72,0.001
146,0.4503488540649414,0.5742059946060181,0.86,0.72,0.001
147,0.47564971446990967,0.5415565967559814,0.82,0.76,0.001
148,0.4429251551628113,0.5296943783760071,0.87,0.78,0.001
149,0.44248515367507935,0.5154219269752502,0.86,0.79,0.001
150,0.43603771924972534,0.5195618867874146,0.88,0.78,0.001
151,0.4254174530506134,0.5251926779747009,0.88,0.79,0.001
152,0.43245574831962585,0.5411527752876282,0.87,0.76,0.001
153,0.4466952383518219,0.5278820395469666,0.86,0.77,0.001
154,0.4227375388145447,0.5199152827262878,0.9,0.79,0.001
155,0.42624351382255554,0.5199540853500366,0.89,0.79,0.001
156,0.44393011927604675,0.5240316987037659,0.86,0.77,0.001
157,0.4289618730545044,0.5401338338851929,0.88,0.75,0.001
158,0.4246228039264679,0.5498634576797485,0.89,0.75,0.001
159,0.4430713951587677,0.5438768863677979,0.87,0.75,0.001
160,0.43587809801101685,0.5272100567817688,0.88,0.77,0.001
161,0.4331567883491516,0.5214107036590576,0.89,0.78,0.001
162,0.4342956244945526,0.5198281407356262,0.87,0.78,0.001
163,0.42242103815078735,0.5246382355690002,0.89,0.78,0.001
164,0.41993504762649536,0.5294849872589111,0.9,0.77,0.001
165,0.4179495871067047,0.5306760668754578,0.9,0.77,0.001
166,0.4301742911338806,0.5255731344223022,0.9,0.78,0.001
167,0.4242677390575409,0.5199429988861084,0.89,0.79,0.001
168,0.417181134223938,0.5196523070335388,0.9,0.78,0.001
169,0.42329978942871094,0.5213670134544373,0.91,0.78,0.001
170,0.4256444275379181,0.5265802145004272,0.88,0.77,0.001
171,0.42382168769836426,0.5296418070793152,0.89,0.75,0.001
172,0.4224458634853363,0.5323131680488586,0.89,0.76,0.001
173,0.41068726778030396,0.5307314991950989,0.91,0.76,0.001
174,0.4248164892196655,0.5285654067993164,0.9,0.76,0.001
175,0.4117947518825531,0.5254873037338257,0.91,0.76,0.001
176,0.4100017547607422,0.5234658718109131,0.91,0.76,0.001
177,0.4202617406845093,0.5221426486968994,0.88,0.78,0.001
178,0.4100770652294159,0.5226203799247742,0.91,0.77,0.001
179,0.4173238277435303,0.5210297107696533,0.89,0.79,0.001
180,0.4165528118610382,0.5217269659042358,0.89,0.78,0.001
181,0.4153413772583008,0.5198513865470886,0.91,0.78,0.001
182,0.41179776191711426,0.5219495892524719,0.9,0.76,0.001
183,0.4126178026199341,0.5232591032981873,0.91,0.76,0.001
184,0.41085532307624817,0.5213505029678345,0.91,0.77,0.001
185,0.40264424681663513,0.518373429775238,0.91,0.78,0.001
186,0.4072531759738922,0.5153647661209106,0.91,0.78,0.001
187,0.41737091541290283,0.5182347893714905,0.9,0.78,0.001
188,0.39558231830596924,0.5198667049407959,0.92,0.79,0.001
189,0.4057117700576782,0.5205280780792236,0.9,0.78,0.001
190,0.3986002802848816,0.5203613042831421,0.92,0.77,0.001
191,0.41220778226852417,0.5171969532966614,0.9,0.79,0.001
192,0.4034704267978668,0.5182765126228333,0.92,0.78,0.001
193,0.40098831057548523,0.5171515941619873,0.91,0.78,0.001
194,0.4103773832321167,0.5183064341545105,0.9,0.79,0.001
195,0.4051670432090759,0.5227826833724976,0.91,0.78,0.001
196,0.41128742694854736,0.5216795206069946,0.9,0.78,0.001
197,0.4095417857170105,0.5206295251846313,0.9,0.78,0.001
198,0.4060056805610657,0.5161774754524231,0.91,0.78,0.001
199,0.40795016288757324,0.5132797956466675,0.91,0.8,0.001
200,0.40986672043800354,0.5122178792953491,0.91,0.79,0.001
201,0.3982827663421631,0.5147392153739929,0.92,0.79,0.001
202,0.40160754323005676,0.5198662877082825,0.91,0.79,0.001
203,0.4228002429008484,0.5185701251029968,0.87,0.77,0.001
204,0.4052136242389679,0.517532229423523,0.92,0.79,0.001
205,0.41048896312713623,0.518653154373169,0.91,0.78,0.001
206,0.41988837718963623,0.5179020762443542,0.89,0.78,0.001
207,0.407390296459198,0.5195760726928711,0.9,0.79,0.001
208,0.4134097397327423,0.5226730108261108,0.9,0.79,0.001
209,0.4238382577896118,0.514229416847229,0.88,0.8,0.001
210,0.4205635190010071,0.5072684288024902,0.88,0.79,0.001
211,0.40476053953170776,0.5113822817802429,0.91,0.8,0.001
212,0.44113975763320923,0.5151841640472412,0.87,0.79,0.001
213,0.4385281503200531,0.510686457157135,0.87,0.79,0.001
214,0.4036664068698883,0.5154107809066772,0.91,0.8,0.001
215,0.41910091042518616,0.5158865451812744,0.89,0.78,0.001
216,0.41432395577430725,0.5121910572052002,0.9,0.79,0.001
217,0.40426212549209595,0.5203224420547485,0.91,0.79,0.001
218,0.4256322979927063,0.5167680978775024,0.89,0.79,0.001
219,0.39953118562698364,0.5202608108520508,0.92,0.79,0.001
220,0.40854546427726746,0.5224437713623047,0.91,0.79,0.001
221,0.42101672291755676,0.5162830948829651,0.89,0.78,0.001
222,0.40760406851768494,0.5100324749946594,0.91,0.79,0.001
223,0.40141966938972473,0.5074036121368408,0.91,0.8,0.001
224,0.4086095094680786,0.5069625377655029,0.91,0.8,0.001
225,0.4061008393764496,0.5107881426811218,0.91,0.79,0.001
226,0.399741530418396,0.5164711475372314,0.92,0.79,0.001
227,0.4012756049633026,0.5292413830757141,0.91,0.76,0.001
228,0.4005354642868042,0.5247561931610107,0.91,0.78,0.001
229,0.39605316519737244,0.5185537338256836,0.92,0.78,0.001
230,0.4055516719818115,0.5144158601760864,0.91,0.8,0.001
231,0.4102248251438141,0.5119869112968445,0.9,0.8,0.001
232,0.4025254547595978,0.5085670948028564,0.92,0.79,0.001
233,0.4020446538925171,0.5080554485321045,0.92,0.8,0.001
234,0.39823898673057556,0.511894166469574,0.91,0.79,0.001
235,0.3919476568698883,0.5210221409797668,0.92,0.79,0.001
236,0.4194575548171997,0.5048783421516418,0.87,0.8,0.001
237,0.39441174268722534,0.504998505115509,0.93,0.8,0.001
238,0.40753844380378723,0.5080088376998901,0.9,0.8,0.001
239,0.42427965998649597,0.5055747628211975,0.89,0.8,0.001
240,0.4032801687717438,0.5270847082138062,0.9,0.78,0.001
241,0.42074909806251526,0.5418441295623779,0.91,0.77,0.001
242,0.4254225790500641,0.5325117707252502,0.88,0.77,0.001
243,0.41855698823928833,0.5120434165000916,0.88,0.79,0.001
244,0.3950418531894684,0.5197995901107788,0.92,0.79,0.001
245,0.41806456446647644,0.5145919919013977,0.9,0.79,0.001
246,0.4008205533027649,0.5093613266944885,0.92,0.79,0.001
247,0.3965786099433899,0.5118601322174072,0.92,0.81,0.001
248,0.39681729674339294,0.5349047183990479,0.91,0.77,0.001
249,0.41356390714645386,0.5206423997879028,0.91,0.79,0.001
250,0.3936786353588104,0.5030813813209534,0.92,0.81,0.001
251,0.39467525482177734,0.4997365474700928,0.91,0.8,0.001
252,0.40528884530067444,0.5037354826927185,0.9,0.79,0.001
253,0.40453025698661804,0.5039452910423279,0.9,0.8,0.001
254,0.39249640703201294,0.5011721253395081,0.92,0.8,0.001
255,0.4040519595146179,0.49489501118659973,0.9,0.81,0.001
256,0.39256447553634644,0.49207061529159546,0.91,0.83,0.001
257,0.39728066325187683,0.4994232952594757,0.92,0.8,0.001
258,0.4151710867881775,0.4935450255870819,0.9,0.82,0.001
259,0.3989493250846863,0.49606287479400635,0.9,0.81,0.001
260,0.4020578861236572,0.5089801549911499,0.91,0.79,0.001
261,0.4160463809967041,0.501036524772644,0.9,0.81,0.001
262,0.4010087251663208,0.4918619990348816,0.91,0.81,0.001
263,0.398874968290329,0.49594488739967346,0.91,0.82,0.001
264,0.40537792444229126,0.4965675473213196,0.9,0.83,0.001
265,0.39458128809928894,0.4918109178543091,0.93,0.83,0.001
266,0.39862582087516785,0.49455583095550537,0.91,0.81,0.001
267,0.3971289098262787,0.49759650230407715,0.91,0.82,0.001
268,0.40085598826408386,0.4985451102256775,0.91,0.82,0.001
269,0.402730256319046,0.49810585379600525,0.9,0.82,0.001
270,0.4107632040977478,0.5007993578910828,0.89,0.82,0.001
271,0.40205052495002747,0.5015453696250916,0.91,0.81,0.001
272,0.3930407762527466,0.502707839012146,0.92,0.81,0.001
273,0.39494872093200684,0.5041620135307312,0.92,0.81,0.001
274,0.3930007517337799,0.5058404803276062,0.92,0.81,0.001
275,0.4013151228427887,0.5076705813407898,0.92,0.81,0.001
276,0.3894171416759491,0.5109580159187317,0.91,0.81,0.001
277,0.4005909264087677,0.5138810873031616,0.91,0.8,0.001
278,0.38963600993156433,0.5137660503387451,0.93,0.8,0.001
279,0.401917040348053,0.5115865468978882,0.91,0.79,0.001
280,0.39588749408721924,0.5106356739997864,0.91,0.79,0.001
281,0.4069550037384033,0.5042356252670288,0.9,0.8,0.001
282,0.4010034203529358,0.5016644597053528,0.91,0.81,0.001
283,0.39691710472106934,0.5039260983467102,0.92,0.81,0.001
284,0.38597720861434937,0.5095691084861755,0.93,0.79,0.001
285,0.3920719623565674,0.5147041082382202,0.9,0.78,0.001
286,0.4181874990463257,0.5006740093231201,0.89,0.81,0.001
287,0.39803755283355713,0.5059370994567871,0.92,0.81,0.001
288,0.39963817596435547,0.5144644379615784,0.91,0.79,0.001
289,0.4184305667877197,0.5120384693145752,0.9,0.79,0.001
290,0.39917445182800293,0.4991682767868042,0.92,0.81,0.001
291,0.3963428735733032,0.5106163024902344,0.91,0.81,0.001
292,0.40390706062316895,0.5188124179840088,0.91,0.79,0.001
293,0.41064074635505676,0.5152148604393005,0.9,0.79,0.001
294,0.4029804468154907,0.5101646780967712,0.9,0.81,0.001
295,0.39563843607902527,0.5079124569892883,0.92,0.79,0.001
296,0.3973841071128845,0.5090038776397705,0.91,0.8,0.001
297,0.4037174582481384,0.5016276240348816,0.9,0.8,0.001
298,0.4005128741264343,0.49583548307418823,0.91,0.8,0.001
299,0.38723254203796387,0.4899452328681946,0.93,0.83,0.001
300,0.3932682275772095,0.49074918031692505,0.92,0.83,0.001
301,0.40912672877311707,0.49165087938308716,0.9,0.82,0.001
302,0.41555652022361755,0.4962235987186432,0.89,0.82,0.001
303,0.400600403547287,0.5028481483459473,0.91,0.8,0.001
304,0.3984042704105377,0.5079998970031738,0.92,0.81,0.001
305,0.40599778294563293,0.509346067905426,0.9,0.79,0.001
306,0.3918112516403198,0.5136630535125732,0.92,0.8,0.001
307,0.3985770344734192,0.5341838002204895,0.92,0.77,0.001
308,0.39770153164863586,0.536206066608429,0.91,0.75,0.001
309,0.4087682068347931,0.5107333660125732,0.9,0.81,0.001
310,0.39246809482574463,0.49778270721435547,0.92,0.82,0.001
311,0.39341872930526733,0.4968116283416748,0.92,0.81,0.001
312,0.3967338800430298,0.5028430223464966,0.91,0.8,0.001
313,0.3945116400718689,0.502495288848877,0.92,0.8,0.001
314,0.39779701828956604,0.5009998083114624,0.91,0.81,0.001
315,0.4002735912799835,0.49631619453430176,0.92,0.81,0.001
316,0.4020949602127075,0.49001678824424744,0.91,0.83,0.001
317,0.3952166736125946,0.4923696219921112,0.92,0.82,0.001
318,0.39738890528678894,0.49461379647254944,0.93,0.82,0.001
319,0.3939118981361389,0.4955107569694519,0.93,0.82,0.001
320,0.39135777950286865,0.4980737566947937,0.92,0.81,0.001
321,0.40066733956336975,0.49877122044563293,0.91,0.8,0.001
322,0.39240050315856934,0.5003885626792908,0.92,0.8,0.001
323,0.3990585207939148,0.5022708773612976,0.91,0.8,0.001
324,0.39713725447654724,0.503847599029541,0.92,0.8,0.001
325,0.39715006947517395,0.5046096444129944,0.92,0.8,0.001
326,0.39518657326698303,0.5047364234924316,0.92,0.8,0.001
327,0.39658474922180176,0.5047285556793213,0.92,0.81,0.001
328,0.39357730746269226,0.5062351226806641,0.92,0.81,0.001
329,0.39535361528396606,0.511903703212738,0.92,0.8,0.001
330,0.39249980449676514,0.5160693526268005,0.93,0.8,0.001
331,0.3947320282459259,0.5180687308311462,0.92,0.8,0.001
332,0.3854205310344696,0.5174172520637512,0.93,0.8,0.001
333,0.4008745551109314,0.5168321132659912,0.91,0.8,0.001
334,0.39249882102012634,0.5175828337669373,0.91,0.8,0.001
335,0.3956603705883026,0.5103065371513367,0.92,0.8,0.001
336,0.3968665599822998,0.5019166469573975,0.92,0.81,0.001
337,0.39199161529541016,0.5031262636184692,0.92,0.79,0.001
338,0.3876382112503052,0.5012573003768921,0.92,0.8,0.001
339,0.389426589012146,0.4990465044975281,0.92,0.81,0.001
340,0.3878270387649536,0.508190929889679,0.93,0.8,0.001
341,0.3995770215988159,0.5108778476715088,0.92,0.8,0.001
342,0.40137675404548645,0.5023258328437805,0.91,0.8,0.001
343,0.4037633538246155,0.4978809654712677,0.91,0.81,0.001
344,0.3939785063266754,0.49908447265625,0.92,0.8,0.001
345,0.3975236415863037,0.5018977522850037,0.92,0.8,0.001
346,0.39758700132369995,0.49486473202705383,0.91,0.81,0.001
347,0.39563795924186707,0.49370136857032776,0.92,0.81,0.001
348,0.39199694991111755,0.49401038885116577,0.93,0.81,0.001
349,0.3949991464614868,0.49584609270095825,0.92,0.81,0.001
350,0.39523425698280334,0.4985499978065491,0.92,0.81,0.001
351,0.3857302963733673,0.4996306598186493,0.93,0.81,0.001
352,0.40075257420539856,0.49364984035491943,0.91,0.82,0.001
353,0.3988291025161743,0.4985235333442688,0.92,0.81,0.001
354,0.4006272852420807,0.502657949924469,0.91,0.8,0.001
355,0.4063797891139984,0.49448898434638977,0.9,0.82,0.001
356,0.3946709930896759,0.5087621808052063,0.92,0.79,0.001
357,0.3995124399662018,0.5065192580223083,0.92,0.8,0.001
358,0.39462482929229736,0.49330809712409973,0.92,0.82,0.001
359,0.39338478446006775,0.4902985095977783,0.92,0.81,0.001
360,0.3995518982410431,0.4986041784286499,0.91,0.81,0.001
361,0.3937370181083679,0.5024113655090332,0.92,0.81,0.001
362,0.3977567255496979,0.504970908164978,0.92,0.8,0.001
363,0.39291873574256897,0.5057594180107117,0.92,0.8,0.001
364,0.39982327818870544,0.5007928609848022,0.91,0.81,0.001
365,0.39122605323791504,0.4957994520664215,0.92,0.82,0.001
366,0.3924826383590698,0.4986032247543335,0.92,0.82,0.001
367,0.38681408762931824,0.5166880488395691,0.93,0.79,0.001
368,0.3965666890144348,0.5229763388633728,0.92,0.79,0.001
369,0.4051121473312378,0.5185508728027344,0.9,0.79,0.001
370,0.3849439322948456,0.5098167657852173,0.92,0.81,0.001
371,0.38945770263671875,0.5136479735374451,0.92,0.79,0.001
372,0.40042129158973694,0.5151405930519104,0.91,0.78,0.001
373,0.39754173159599304,0.5109460949897766,0.92,0.79,0.001
374,0.39122000336647034,0.5074934363365173,0.92,0.8,0.001
375,0.3980889916419983,0.5038970708847046,0.92,0.8,0.001
376,0.39980223774909973,0.49995890259742737,0.91,0.81,0.001
377,0.3953166604042053,0.49763625860214233,0.92,0.81,0.001
378,0.3931289613246918,0.4958842396736145,0.92,0.81,0.001
379,0.3930654227733612,0.4943787455558777,0.92,0.82,0.001
380,0.39174512028694153,0.4971960186958313,0.93,0.82,0.001
381,0.39903929829597473,0.495951384305954,0.92,0.82,0.001
382,0.3940195143222809,0.49250179529190063,0.92,0.82,0.001
383,0.3875034749507904,0.490316778421402,0.93,0.82,0.001
384,0.3920825719833374,0.4912240505218506,0.92,0.82,0.001
385,0.3927820920944214,0.4944225251674652,0.92,0.81,0.001
386,0.4037042558193207,0.49451324343681335,0.91,0.81,0.001
387,0.3918347656726837,0.49559512734413147,0.92,0.81,0.001
388,0.39136821031570435,0.4950203001499176,0.93,0.82,0.001
389,0.3929600119590759,0.49575769901275635,0.92,0.82,0.001
390,0.39185070991516113,0.4965439736843109,0.92,0.82,0.001
391,0.3921838104724884,0.4977765679359436,0.93,0.8,0.001
392,0.38685476779937744,0.4970457851886749,0.93,0.8,0.001
393,0.3948822021484375,0.4942609369754791,0.91,0.82,0.001
394,0.38571375608444214,0.49444863200187683,0.93,0.81,0.001
395,0.3899269104003906,0.5005872845649719,0.92,0.8,0.001
396,0.39191627502441406,0.49613845348358154,0.92,0.81,0.001
397,0.39380210638046265,0.49172675609588623,0.92,0.81,0.001
398,0.3881940543651581,0.4871324300765991,0.92,0.83,0.001
399,0.3870728015899658,0.4860120415687561,0.93,0.83,0.001
400,0.3857252597808838,0.4863889217376709,0.93,0.82,0.001
401,0.3925471007823944,0.4889335334300995,0.92,0.82,0.001
402,0.3894319236278534,0.48147761821746826,0.92,0.83,0.001
403,0.3857479989528656,0.4761818051338196,0.93,0.84,0.001
404,0.3847680687904358,0.47727665305137634,0.93,0.84,0.001
405,0.3882770240306854,0.48346617817878723,0.92,0.83,0.001
406,0.3982665538787842,0.47647568583488464,0.91,0.83,0.001
407,0.39684513211250305,0.47424638271331787,0.92,0.84,0.001
408,0.39415913820266724,0.48335230350494385,0.92,0.83,0.001
409,0.4016343653202057,0.4810931384563446,0.91,0.83,0.001
410,0.39708489179611206,0.49228015542030334,0.91,0.82,0.001
411,0.38654881715774536,0.5164967179298401,0.93,0.79,0.001
412,0.40398094058036804,0.5125628113746643,0.9,0.8,0.001
413,0.3977176249027252,0.493375688791275,0.92,0.81,0.001
414,0.393642783164978,0.48831096291542053,0.92,0.82,0.001
415,0.39460185170173645,0.5045268535614014,0.92,0.81,0.001
416,0.4076403081417084,0.5008354783058167,0.9,0.81,0.001
417,0.40126681327819824,0.5019212961196899,0.91,0.81,0.001
418,0.39637085795402527,0.5241129398345947,0.92,0.78,0.001
419,0.40145111083984375,0.5531977415084839,0.92,0.76,0.001
420,0.4069932997226715,0.5599136352539062,0.91,0.75,0.001
421,0.4251232147216797,0.49192672967910767,0.9,0.82,0.001
422,0.389017254114151,0.5159901976585388,0.92,0.8,0.001
423,0.4273455739021301,0.5511162281036377,0.89,0.74,0.001
424,0.47562626004219055,0.5281663537025452,0.83,0.79,0.001
425,0.45640793442726135,0.49273425340652466,0.85,0.83,0.001
426,0.4348861277103424,0.5230511426925659,0.88,0.78,0.001
427,0.4430697560310364,0.5274942517280579,0.87,0.77,0.001
428,0.4398353099822998,0.5247659087181091,0.88,0.78,0.001
429,0.43324053287506104,0.5175660848617554,0.89,0.79,0.001
430,0.41222748160362244,0.5200495719909668,0.9,0.79,0.001
431,0.41422852873802185,0.497700959444046,0.91,0.82,0.001
432,0.4254721403121948,0.49635201692581177,0.88,0.82,0.001
433,0.4179520308971405,0.5001829862594604,0.9,0.81,0.001
434,0.411925733089447,0.5123844742774963,0.91,0.78,0.001
435,0.4104362726211548,0.5156392455101013,0.9,0.79,0.001
436,0.40626275539398193,0.5146045684814453,0.91,0.79,0.001
437,0.4061855971813202,0.5107313394546509,0.91,0.79,0.001
438,0.41098394989967346,0.5094576478004456,0.9,0.78,0.001
439,0.40872058272361755,0.5101429224014282,0.9,0.78,0.001
440,0.40277552604675293,0.515044629573822,0.91,0.79,0.001
441,0.40573054552078247,0.5173406004905701,0.91,0.79,0.001
442,0.4146782159805298,0.5174692273139954,0.9,0.79,0.001
443,0.4105428457260132,0.518532395362854,0.9,0.79,0.001
444,0.41281014680862427,0.5195282101631165,0.9,0.79,0.001
445,0.407390296459198,0.5190834999084473,0.9,0.79,0.001
446,0.4156169891357422,0.515615701675415,0.89,0.79,0.001
447,0.41098839044570923,0.511077344417572,0.9,0.79,0.001
448,0.39707645773887634,0.49324971437454224,0.92,0.82,0.001
449,0.40635964274406433,0.4972047805786133,0.9,0.8,0.001
450,0.40771374106407166,0.496883362531662,0.91,0.81,0.001
451,0.4052845239639282,0.49895304441452026,0.9,0.82,0.001
452,0.3951191306114197,0.5058818459510803,0.92,0.8,0.001
453,0.3887629210948944,0.5099320411682129,0.93,0.79,0.001
454,0.39870887994766235,0.5062913298606873,0.91,0.79,0.001
455,0.3963621258735657,0.4911331534385681,0.91,0.82,0.001
456,0.3893013000488281,0.48484575748443604,0.93,0.83,0.001
457,0.3956839442253113,0.48479703068733215,0.91,0.83,0.001
458,0.38897770643234253,0.4854489266872406,0.93,0.83,0.001
459,0.38738778233528137,0.4859350621700287,0.93,0.83,0.001
460,0.3886375427246094,0.4893224239349365,0.93,0.83,0.001
461,0.3829059302806854,0.4961632788181305,0.94,0.82,0.001
462,0.3914351165294647,0.4929022192955017,0.93,0.83,0.001
463,0.3986767530441284,0.4857446551322937,0.92,0.83,0.001
464,0.3893461525440216,0.47910308837890625,0.93,0.83,0.001
465,0.38905298709869385,0.47637739777565,0.92,0.84,0.001
466,0.39153289794921875,0.4762144088745117,0.92,0.84,0.001
467,0.4001084864139557,0.4800662100315094,0.91,0.84,0.001
468,0.3923364281654358,0.48462000489234924,0.92,0.83,0.001
469,0.3954085409641266,0.4880139231681824,0.92,0.83,0.001
470,0.391580730676651,0.49184945225715637,0.92,0.83,0.001
471,0.3911145329475403,0.4916394352912903,0.93,0.83,0.001
472,0.39230555295944214,0.49140238761901855,0.92,0.83,0.001
473,0.38530585169792175,0.48733270168304443,0.93,0.83,0.001
474,0.38963213562965393,0.4816133975982666,0.93,0.84,0.001
475,0.38426631689071655,0.47595128417015076,0.93,0.84,0.001
476,0.3903282880783081,0.4748827815055847,0.93,0.84,0.001
477,0.3887450098991394,0.4743168354034424,0.93,0.84,0.001
478,0.39054542779922485,0.4766058027744293,0.93,0.84,0.001
479,0.38634106516838074,0.478372186422348,0.93,0.84,0.001
480,0.38993585109710693,0.47625789046287537,0.92,0.84,0.001
481,0.38583633303642273,0.47257301211357117,0.93,0.84,0.001
482,0.38388895988464355,0.47143450379371643,0.93,0.84,0.001
483,0.3857482671737671,0.4721011817455292,0.93,0.84,0.001
484,0.3886738717556,0.47974979877471924,0.92,0.83,0.001
485,0.3875652253627777,0.4837856590747833,0.93,0.83,0.001
486,0.38830700516700745,0.4915415048599243,0.93,0.83,0.001
487,0.3871335983276367,0.49306991696357727,0.93,0.83,0.001
488,0.3911038339138031,0.471113383769989,0.92,0.85,0.001
489,0.40159374475479126,0.4865695834159851,0.91,0.82,0.001
490,0.4052656888961792,0.49606582522392273,0.91,0.81,0.001
491,0.4142858386039734,0.49251309037208557,0.9,0.81,0.001
492,0.406105637550354,0.48583751916885376,0.91,0.83,0.001
493,0.39932873845100403,0.5041913986206055,0.91,0.8,0.001
494,0.3973824381828308,0.4788435995578766,0.92,0.84,0.001
495,0.39538517594337463,0.48274680972099304,0.92,0.83,0.001
496,0.4002183973789215,0.4810010492801666,0.91,0.84,0.001
497,0.4140971302986145,0.4891353249549866,0.9,0.83,0.001
498,0.40679019689559937,0.49269530177116394,0.91,0.81,0.001
499,0.401441752910614,0.6120176911354065,0.91,0.69,0.001
500,0.49632537364959717,0.7181050181388855,0.8,0.58,0.001
501,0.7095701098442078,0.5824357867240906,0.59,0.71,0.001
502,0.43922102451324463,0.526430606842041,0.88,0.78,0.001
503,0.4029892086982727,0.5073117613792419,0.91,0.81,0.001
504,0.4589388966560364,0.5285009145736694,0.85,0.78,0.001
505,0.49779385328292847,0.5470015406608582,0.81,0.76,0.001
506,0.512544572353363,0.5482516288757324,0.8,0.76,0.001
507,0.5168302655220032,0.5468213558197021,0.8,0.76,0.001
508,0.5158572196960449,0.5348404049873352,0.8,0.77,0.001
509,0.49574747681617737,0.5242115259170532,0.82,0.8,0.001
510,0.47334399819374084,0.5335580706596375,0.83,0.78,0.001
511,0.4546566307544708,0.5406537652015686,0.86,0.77,0.001
512,0.45070549845695496,0.566256582736969,0.86,0.73,0.001
513,0.45535537600517273,0.5676855444908142,0.86,0.72,0.001
514,0.4628390371799469,0.5493310689926147,0.85,0.74,0.001
515,0.44475165009498596,0.5436630845069885,0.85,0.75,0.001
516,0.4256492853164673,0.5067107081413269,0.87,0.81,0.001
517,0.4342461824417114,0.5121786594390869,0.86,0.8,0.001
518,0.4395291209220886,0.5209384560585022,0.85,0.79,0.001
519,0.44282329082489014,0.5167888402938843,0.86,0.79,0.001
520,0.44457587599754333,0.5027432441711426,0.86,0.79,0.001
521,0.4269445538520813,0.508118212223053,0.89,0.8,0.001
522,0.4376246929168701,0.5278498530387878,0.87,0.77,0.001
523,0.44073763489723206,0.5358380079269409,0.86,0.77,0.001
524,0.4468633234500885,0.5333751440048218,0.86,0.78,0.001
525,0.46374115347862244,0.5198727250099182,0.83,0.78,0.001
526,0.4469633400440216,0.5179213881492615,0.86,0.79,0.001
527,0.42781969904899597,0.5157169699668884,0.88,0.8,0.001
528,0.44583794474601746,0.5163294672966003,0.87,0.8,0.001
529,0.4249862730503082,0.5186029672622681,0.9,0.79,0.001
530,0.43127793073654175,0.5248159170150757,0.89,0.78,0.001
531,0.4324730932712555,0.5235511064529419,0.87,0.78,0.001
532,0.414353609085083,0.5171002149581909,0.9,0.79,0.001
533,0.42769959568977356,0.5035706162452698,0.87,0.81,0.001
534,0.40792569518089294,0.4914765954017639,0.9,0.82,0.001
535,0.4090818464756012,0.48959609866142273,0.91,0.83,0.001
536,0.41601356863975525,0.4931146204471588,0.9,0.82,0.001
537,0.4147968292236328,0.4951303005218506,0.9,0.82,0.001
538,0.4093260169029236,0.49311718344688416,0.9,0.82,0.001
539,0.4060050845146179,0.4988518953323364,0.91,0.81,0.001
540,0.40952250361442566,0.5088400840759277,0.91,0.81,0.001
541,0.4174451529979706,0.5111857056617737,0.89,0.8,0.001
542,0.42510414123535156,0.5054042339324951,0.88,0.81,0.001
543,0.41004112362861633,0.49807536602020264,0.91,0.81,0.001
544,0.40398499369621277,0.49565020203590393,0.91,0.81,0.001
545,0.4145830571651459,0.49405762553215027,0.91,0.82,0.001
546,0.40196776390075684,0.4921150207519531,0.92,0.82,0.001
547,0.401864230632782,0.49149447679519653,0.92,0.82,0.001
548,0.4047316312789917,0.4908984899520874,0.91,0.82,0.001
549,0.4075630307197571,0.4904455244541168,0.9,0.82,0.001
550,0.39969462156295776,0.48713046312332153,0.91,0.82,0.001
551,0.3989694118499756,0.4827660620212555,0.91,0.83,0.001
552,0.3907351791858673,0.4863840341567993,0.93,0.82,0.001
553,0.3938615024089813,0.4910954236984253,0.92,0.82,0.001
554,0.38757678866386414,0.497604101896286,0.93,0.82,0.001
555,0.3943782150745392,0.5058065056800842,0.93,0.8,0.001
556,0.3970133066177368,0.5056625604629517,0.92,0.8,0.001
557,0.3927823007106781,0.4992049038410187,0.93,0.82,0.001
558,0.3892560601234436,0.49586230516433716,0.93,0.81,0.001
559,0.400631308555603,0.49317657947540283,0.91,0.81,0.001
560,0.39087769389152527,0.48997583985328674,0.92,0.82,0.001
561,0.38600558042526245,0.4863932132720947,0.93,0.82,0.001
562,0.3866322338581085,0.4844783544540405,0.93,0.82,0.0007937005259840996
563,0.3869633376598358,0.48317664861679077,0.93,0.83,0.0007937005259840996
564,0.3883399963378906,0.4817764163017273,0.93,0.83,0.0007937005259840996
565,0.3884318470954895,0.4818156063556671,0.93,0.83,0.0007937005259840996
566,0.3872385323047638,0.48458626866340637,0.93,0.83,0.0007937005259840996
567,0.3896905779838562,0.48660969734191895,0.92,0.83,0.0007937005259840996
568,0.38918566703796387,0.48632776737213135,0.93,0.83,0.0007937005259840996
569,0.3870525360107422,0.4864380657672882,0.93,0.83,0.0007937005259840996
570,0.39276203513145447,0.4868738651275635,0.92,0.83,0.0007937005259840996
571,0.38579753041267395,0.4870698153972626,0.93,0.83,0.0007937005259840996
572,0.3869841396808624,0.4868319034576416,0.93,0.83,0.0007937005259840996
573,0.3853940963745117,0.48612385988235474,0.93,0.83,0.0007937005259840996
574,0.38701266050338745,0.4832286536693573,0.92,0.83,0.0007937005259840996
575,0.3912818431854248,0.4819454550743103,0.92,0.83,0.0007937005259840996
576,0.39199694991111755,0.48292145133018494,0.93,0.83,0.0007937005259840996
577,0.3886505365371704,0.4842543303966522,0.93,0.82,0.0007937005259840996
578,0.38584452867507935,0.484885573387146,0.93,0.82,0.0007937005259840996
579,0.38619738817214966,0.48457223176956177,0.93,0.82,0.0007937005259840996
580,0.38844844698905945,0.48350971937179565,0.93,0.82,0.0007937005259840996
581,0.38518092036247253,0.48205965757369995,0.93,0.83,0.0007937005259840996
582,0.3881457448005676,0.47849801182746887,0.93,0.84,0.0007937005259840996
583,0.38469985127449036,0.4756535291671753,0.93,0.84,0.0007937005259840996
584,0.38569706678390503,0.473613977432251,0.93,0.85,0.0007937005259840996
585,0.38797083497047424,0.4725945293903351,0.93,0.85,0.0007937005259840996
586,0.38647356629371643,0.4722383916378021,0.93,0.85,0.0007937005259840996
587,0.3877953588962555,0.472036749124527,0.93,0.85,0.0007937005259840996
588,0.3883238732814789,0.4744575619697571,0.93,0.84,0.0007937005259840996
589,0.3851810395717621,0.47938916087150574,0.93,0.84,0.0007937005259840996
590,0.3884337544441223,0.48535582423210144,0.93,0.83,0.0007937005259840996
591,0.3913048803806305,0.4781789481639862,0.92,0.84,0.0007937005259840996
592,0.38544991612434387,0.4745030999183655,0.93,0.85,0.0007937005259840996
593,0.3868362307548523,0.47513672709465027,0.93,0.85,0.0007937005259840996
594,0.3855157196521759,0.4796435534954071,0.93,0.83,0.0007937005259840996
595,0.38835152983665466,0.48330166935920715,0.93,0.83,0.0007937005259840996
596,0.38973304629325867,0.4840766489505768,0.93,0.83,0.0007937005259840996
597,0.39275383949279785,0.48152196407318115,0.92,0.83,0.0007937005259840996
598,0.3846641778945923,0.4838870167732239,0.93,0.83,0.0007937005259840996
599,0.39593395590782166,0.4872598946094513,0.92,0.82,0.0007937005259840996
600,0.38966047763824463,0.48899441957473755,0.93,0.82,0.0007937005259840996
601,0.38663139939308167,0.48949503898620605,0.93,0.81,0.0007937005259840996
602,0.38457855582237244,0.4893185496330261,0.93,0.8,0.0007937005259840996
603,0.38226738572120667,0.488127201795578,0.93,0.82,0.0007937005259840996
604,0.388685405254364,0.48565322160720825,0.93,0.83,0.0007937005259840996
605,0.38804423809051514,0.48267075419425964,0.93,0.83,0.0007937005259840996
606,0.38515979051589966,0.4797537624835968,0.93,0.83,0.0007937005259840996
607,0.3866029381752014,0.47737494111061096,0.93,0.83,0.0007937005259840996
608,0.3847518563270569,0.47670501470565796,0.93,0.83,0.0007937005259840996
609,0.38696449995040894,0.4768337309360504,0.93,0.83,0.0007937005259840996
610,0.38772052526474,0.4774185121059418,0.93,0.83,0.0007937005259840996
611,0.38257303833961487,0.4779958724975586,0.93,0.83,0.0007937005259840996
612,0.3865027129650116,0.4778575003147125,0.93,0.83,0.0007937005259840996
613,0.38657525181770325,0.47644224762916565,0.93,0.84,0.0007937005259840996
614,0.385698139667511,0.4753107726573944,0.93,0.84,0.0007937005259840996
615,0.3857274651527405,0.4749074876308441,0.93,0.84,0.0007937005259840996
616,0.384790301322937,0.4749889671802521,0.93,0.85,0.0007937005259840996
617,0.38824936747550964,0.4746485650539398,0.93,0.85,0.0007937005259840996
618,0.38578665256500244,0.474460631608963,0.93,0.84,0.0007937005259840996
619,0.38470259308815,0.47446101903915405,0.93,0.84,0.0007937005259840996
620,0.38414081931114197,0.4746493995189667,0.93,0.84,0.0007937005259840996
621,0.385138601064682,0.47475963830947876,0.93,0.84,0.0007937005259840996
622,0.3849944770336151,0.4748402535915375,0.93,0.84,0.0007937005259840996
623,0.38322126865386963,0.4747694432735443,0.93,0.84,0.0007937005259840996
624,0.38415706157684326,0.4745665490627289,0.93,0.84,0.0007937005259840996
625,0.3855089843273163,0.4736058712005615,0.93,0.84,0.0007937005259840996
626,0.3854808807373047,0.47261467576026917,0.93,0.85,0.0007937005259840996
627,0.38580676913261414,0.4720197916030884,0.93,0.85,0.0007937005259840996
628,0.3844783902168274,0.47178810834884644,0.93,0.85,0.0007937005259840996
629,0.3844580352306366,0.4714880883693695,0.93,0.85,0.0007937005259840996
630,0.3846869170665741,0.47127366065979004,0.93,0.85,0.0007937005259840996
631,0.38525715470314026,0.4710395038127899,0.93,0.85,0.0007937005259840996
632,0.38908207416534424,0.4704897701740265,0.92,0.85,0.0007937005259840996
633,0.3845354914665222,0.4699704647064209,0.93,0.85,0.0007937005259840996
634,0.38565775752067566,0.4695860743522644,0.93,0.85,0.0007937005259840996
635,0.3867659270763397,0.47049441933631897,0.93,0.85,0.0007937005259840996
636,0.38194596767425537,0.4717211127281189,0.93,0.85,0.0007937005259840996
637,0.3876377046108246,0.47277718782424927,0.93,0.85,0.0007937005259840996
638,0.38556504249572754,0.47315898537635803,0.93,0.85,0.0007937005259840996
639,0.3829842507839203,0.4733724594116211,0.93,0.85,0.0007937005259840996
640,0.38475045561790466,0.47327250242233276,0.93,0.85,0.0007937005259840996
641,0.383887380361557,0.4728935956954956,0.93,0.85,0.0007937005259840996
642,0.38369637727737427,0.4723264276981354,0.93,0.85,0.0007937005259840996
643,0.3849254846572876,0.47166499495506287,0.93,0.85,0.0007937005259840996
644,0.38617798686027527,0.4719010889530182,0.93,0.85,0.0007937005259840996
645,0.38462844491004944,0.47214818000793457,0.93,0.85,0.0007937005259840996
646,0.3878615200519562,0.47153979539871216,0.93,0.85,0.0007937005259840996
647,0.3839576840400696,0.4709765911102295,0.93,0.85,0.0007937005259840996
648,0.38172340393066406,0.470671683549881,0.93,0.85,0.0007937005259840996
649,0.3882778584957123,0.4698072671890259,0.93,0.85,0.0007937005259840996
650,0.3848363757133484,0.4689832329750061,0.93,0.85,0.0007937005259840996
651,0.3836364448070526,0.4684561789035797,0.93,0.85,0.0007937005259840996
652,0.38470977544784546,0.4681318700313568,0.93,0.85,0.0007937005259840996
653,0.38397130370140076,0.46793627738952637,0.93,0.85,0.0007937005259840996
654,0.3850952088832855,0.4677477180957794,0.93,0.85,0.0007937005259840996
655,0.38600385189056396,0.46743515133857727,0.93,0.85,0.0007937005259840996
656,0.3866717219352722,0.46704232692718506,0.93,0.85,0.0007937005259840996
657,0.3844762146472931,0.46681854128837585,0.93,0.85,0.0007937005259840996
658,0.3824198842048645,0.4667001962661743,0.93,0.85,0.0007937005259840996
659,0.3835926055908203,0.4665827453136444,0.93,0.85,0.0007937005259840996
660,0.38388264179229736,0.46679458022117615,0.93,0.85,0.0007937005259840996
661,0.38441982865333557,0.4673674702644348,0.93,0.85,0.0007937005259840996
662,0.38412147760391235,0.46811291575431824,0.93,0.85,0.0007937005259840996
663,0.3837161958217621,0.4690832197666168,0.93,0.85,0.0007937005259840996
664,0.38516271114349365,0.4709579348564148,0.93,0.85,0.0007937005259840996
665,0.3838564157485962,0.47332194447517395,0.93,0.84,0.0007937005259840996
666,0.38783225417137146,0.46909114718437195,0.93,0.85,0.0007937005259840996
667,0.3839977979660034,0.4680928885936737,0.93,0.85,0.0007937005259840996
668,0.38514789938926697,0.46912944316864014,0.93,0.85,0.0007937005259840996
669,0.3839140832424164,0.4751221537590027,0.93,0.84,0.0007937005259840996
670,0.39000073075294495,0.4706496000289917,0.92,0.85,0.0007937005259840996
671,0.3845495879650116,0.4701119363307953,0.93,0.85,0.0007937005259840996
672,0.38525331020355225,0.471058189868927,0.93,0.85,0.0007937005259840996
673,0.3885672390460968,0.47211745381355286,0.93,0.85,0.0007937005259840996
674,0.3918471932411194,0.4733315706253052,0.92,0.85,0.0007937005259840996
675,0.3840201497077942,0.47464630007743835,0.93,0.85,0.0007937005259840996
676,0.3819431960582733,0.47610732913017273,0.93,0.84,0.0007937005259840996
677,0.38714277744293213,0.476472944021225,0.93,0.84,0.0007937005259840996
678,0.3843482732772827,0.4762694537639618,0.93,0.84,0.0007937005259840996
679,0.3861906826496124,0.4749678075313568,0.93,0.84,0.0007937005259840996
680,0.38554060459136963,0.472976952791214,0.93,0.85,0.0007937005259840996
681,0.3842702805995941,0.4711076021194458,0.93,0.85,0.0007937005259840996
682,0.38428983092308044,0.46959373354911804,0.93,0.85,0.0007937005259840996
683,0.3836933374404907,0.46863260865211487,0.93,0.85,0.0007937005259840996
684,0.3852902352809906,0.46834614872932434,0.93,0.85,0.0007937005259840996
685,0.3837014436721802,0.46817415952682495,0.93,0.85,0.0007937005259840996
686,0.38413745164871216,0.4681032598018646,0.93,0.85,0.0007937005259840996
687,0.38491877913475037,0.4683518707752228,0.93,0.85,0.0007937005259840996
688,0.3840130865573883,0.4688188433647156,0.93,0.85,0.0007937005259840996
689,0.3837089538574219,0.4693990647792816,0.93,0.85,0.0007937005259840996
690,0.3849670886993408,0.4698140621185303,0.93,0.85,0.0007937005259840996
691,0.3836185038089752,0.470245897769928,0.93,0.85,0.0007937005259840996
692,0.38904380798339844,0.470814973115921,0.92,0.85,0.0007937005259840996
693,0.3836928904056549,0.4712490737438202,0.93,0.85,0.0007937005259840996
694,0.38569316267967224,0.4710492789745331,0.93,0.85,0.0007937005259840996
695,0.3839232325553894,0.4707513749599457,0.93,0.85,0.0007937005259840996
696,0.3837698698043823,0.4704355001449585,0.93,0.85,0.0007937005259840996
697,0.3847481608390808,0.4699791967868805,0.93,0.85,0.0007937005259840996
698,0.38420572876930237,0.46960604190826416,0.93,0.85,0.0007937005259840996
699,0.38349229097366333,0.4693596363067627,0.93,0.85,0.0007937005259840996
700,0.3837592601776123,0.4691295623779297,0.93,0.85,0.0007937005259840996
701,0.3851529657840729,0.46899649500846863,0.93,0.85,0.0007937005259840996
702,0.3855217397212982,0.4687196612358093,0.93,0.85,0.0007937005259840996
703,0.3838410973548889,0.46856391429901123,0.93,0.85,0.0007937005259840996
704,0.3842969834804535,0.46851563453674316,0.93,0.85,0.0007937005259840996
705,0.38373756408691406,0.4681473672389984,0.93,0.85,0.0007937005259840996
706,0.38351505994796753,0.46787577867507935,0.93,0.85,0.0007937005259840996
707,0.38397759199142456,0.4677138924598694,0.93,0.85,0.0007937005259840996
708,0.3841511607170105,0.4677281081676483,0.93,0.85,0.0007937005259840996
709,0.3840623199939728,0.4677524268627167,0.93,0.85,0.0007937005259840996
710,0.38353806734085083,0.4678143560886383,0.93,0.85,0.0007937005259840996
711,0.38209569454193115,0.46794673800468445,0.93,0.85,0.0007937005259840996
712,0.3848593533039093,0.4677945077419281,0.93,0.85,0.0007937005259840996
713,0.3844127357006073,0.4679495692253113,0.93,0.85,0.0007937005259840996
714,0.382897287607193,0.46808627247810364,0.93,0.85,0.0007937005259840996
715,0.38429030776023865,0.46826186776161194,0.93,0.85,0.0007937005259840996
716,0.3854927718639374,0.46821004152297974,0.93,0.85,0.0007937005259840996
717,0.3836975395679474,0.4681885838508606,0.93,0.85,0.0007937005259840996
718,0.38351333141326904,0.46812325716018677,0.93,0.85,0.0007937005259840996
719,0.383073627948761,0.46806174516677856,0.93,0.85,0.0007937005259840996
720,0.383683979511261,0.4680129587650299,0.93,0.85,0.0007937005259840996
721,0.3831987679004669,0.46799033880233765,0.93,0.85,0.0007937005259840996
722,0.38392555713653564,0.4678781032562256,0.93,0.85,0.0007937005259840996
723,0.3839830756187439,0.467739075422287,0.93,0.85,0.0007937005259840996
724,0.3835044205188751,0.46763014793395996,0.93,0.85,0.0007937005259840996
725,0.38381117582321167,0.4674915075302124,0.93,0.85,0.0007937005259840996
726,0.38359612226486206,0.4673402011394501,0.93,0.85,0.0007937005259840996
727,0.3837547302246094,0.46723946928977966,0.93,0.85,0.0007937005259840996
728,0.3841100335121155,0.4671996235847473,0.93,0.85,0.0007937005259840996
729,0.3838409185409546,0.46710404753685,0.93,0.85,0.0007937005259840996
730,0.38418278098106384,0.46700140833854675,0.93,0.85,0.0007937005259840996
731,0.38342875242233276,0.46691346168518066,0.93,0.85,0.0007937005259840996
732,0.38398152589797974,0.4668201506137848,0.93,0.85,0.0007937005259840996
733,0.38368454575538635,0.4667285680770874,0.93,0.85,0.0007937005259840996
734,0.38358861207962036,0.46663206815719604,0.93,0.85,0.0007937005259840996
735,0.38379108905792236,0.4665568172931671,0.93,0.85,0.0007937005259840996
736,0.38352835178375244,0.46649792790412903,0.93,0.85,0.0007937005259840996
737,0.38382214307785034,0.46641257405281067,0.93,0.85,0.0007937005259840996
738,0.38366249203681946,0.4663209617137909,0.93,0.85,0.0007937005259840996
739,0.38430318236351013,0.46623894572257996,0.93,0.85,0.0007937005259840996
740,0.38495251536369324,0.4661328196525574,0.93,0.85,0.0007937005259840996
741,0.3849189877510071,0.46617916226387024,0.93,0.85,0.0007937005259840996
742,0.3836473226547241,0.4662304222583771,0.93,0.85,0.0007937005259840996
743,0.3833087980747223,0.46637916564941406,0.93,0.85,0.0007937005259840996
744,0.38493090867996216,0.4665493667125702,0.93,0.85,0.0007937005259840996
745,0.383951336145401,0.46672359108924866,0.93,0.85,0.0007937005259840996
746,0.38402247428894043,0.4667791426181793,0.93,0.85,0.0007937005259840996
747,0.38343268632888794,0.46685367822647095,0.93,0.85,0.0007937005259840996
748,0.3838868737220764,0.4668700098991394,0.93,0.85,0.0007937005259840996
749,0.3846004605293274,0.46676504611968994,0.93,0.85,0.0006299605249474364
750,0.3835153877735138,0.4666919410228729,0.93,0.85,0.0006299605249474364
751,0.38354501128196716,0.4666392207145691,0.93,0.85,0.0006299605249474364
752,0.38359230756759644,0.46651265025138855,0.93,0.85,0.0006299605249474364
753,0.38345879316329956,0.46639424562454224,0.93,0.85,0.0006299605249474364
754,0.3850247263908386,0.4663625955581665,0.93,0.85,0.0006299605249474364
755,0.3840124011039734,0.4663090109825134,0.93,0.85,0.0006299605249474364
756,0.38376280665397644,0.46633997559547424,0.93,0.85,0.0006299605249474364
757,0.38347721099853516,0.4663965702056885,0.93,0.85,0.0006299605249474364
758,0.38282936811447144,0.46651265025138855,0.93,0.85,0.0006299605249474364
759,0.3875582218170166,0.46654605865478516,0.92,0.85,0.0006299605249474364
760,0.383468359708786,0.46661919355392456,0.93,0.85,0.0006299605249474364
761,0.3852981925010681,0.46651798486709595,0.93,0.85,0.0006299605249474364
762,0.38358184695243835,0.46641895174980164,0.93,0.85,0.0006299605249474364
763,0.3833261728286743,0.4663737118244171,0.93,0.85,0.0006299605249474364
764,0.3841612637042999,0.4663013219833374,0.93,0.85,0.0006299605249474364
765,0.3835562467575073,0.46615418791770935,0.93,0.85,0.0006299605249474364
766,0.38385188579559326,0.46594861149787903,0.93,0.85,0.0006299605249474364
767,0.3843744993209839,0.4657001495361328,0.93,0.85,0.0006299605249474364
768,0.38414469361305237,0.465389609336853,0.93,0.85,0.0006299605249474364
769,0.38360732793807983,0.46519801020622253,0.93,0.85,0.0006299605249474364
770,0.3841763734817505,0.4650820791721344,0.93,0.85,0.0006299605249474364
771,0.3831920623779297,0.4650709629058838,0.93,0.85,0.0006299605249474364
772,0.3839205801486969,0.4651322662830353,0.93,0.85,0.0006299605249474364
773,0.3835373818874359,0.46525803208351135,0.93,0.85,0.0006299605249474364
774,0.38338783383369446,0.46539828181266785,0.93,0.85,0.0006299605249474364
775,0.3837547302246094,0.46557456254959106,0.93,0.85,0.0006299605249474364
776,0.3836962878704071,0.4656990170478821,0.93,0.85,0.0006299605249474364
777,0.3834375739097595,0.4657769501209259,0.93,0.85,0.0006299605249474364
778,0.3835087716579437,0.46572592854499817,0.93,0.85,0.0006299605249474364
779,0.38376498222351074,0.4655984938144684,0.93,0.85,0.0006299605249474364
780,0.38367775082588196,0.4654761254787445,0.93,0.85,0.0006299605249474364
781,0.3831462562084198,0.46535050868988037,0.93,0.85,0.0006299605249474364
782,0.3844156563282013,0.46520817279815674,0.93,0.85,0.0006299605249474364
783,0.38346126675605774,0.46516597270965576,0.93,0.85,0.0006299605249474364
784,0.3838336169719696,0.4651769697666168,0.93,0.85,0.0006299605249474364
785,0.38339969515800476,0.46522101759910583,0.93,0.85,0.0006299605249474364
786,0.3839918375015259,0.4653325378894806,0.93,0.85,0.0006299605249474364
787,0.38470420241355896,0.46546459197998047,0.93,0.85,0.0006299605249474364
788,0.38402801752090454,0.4655711352825165,0.93,0.85,0.0006299605249474364
789,0.38405340909957886,0.4657606780529022,0.93,0.85,0.0006299605249474364
790,0.3839475214481354,0.46591269969940186,0.93,0.85,0.0006299605249474364
791,0.38440605998039246,0.4658708870410919,0.93,0.85,0.0006299605249474364
792,0.383283793926239,0.46582967042922974,0.93,0.85,0.0006299605249474364
793,0.3841736316680908,0.46575966477394104,0.93,0.85,0.0006299605249474364
794,0.3835379481315613,0.4657013416290283,0.93,0.85,0.0006299605249474364
795,0.3836732804775238,0.4655793309211731,0.93,0.85,0.0006299605249474364
796,0.38342198729515076,0.46548670530319214,0.93,0.85,0.0006299605249474364
797,0.38375189900398254,0.4654463231563568,0.93,0.85,0.0006299605249474364
798,0.384014368057251,0.4654126465320587,0.93,0.85,0.0006299605249474364
799,0.38305342197418213,0.46540722250938416,0.93,0.85,0.0006299605249474364
800,0.3833950161933899,0.46542131900787354,0.93,0.85,0.0006299605249474364
801,0.3835713565349579,0.46544787287712097,0.93,0.85,0.0006299605249474364
802,0.383116215467453,0.46548497676849365,0.93,0.85,0.0006299605249474364
803,0.38349974155426025,0.4655207693576813,0.93,0.85,0.0006299605249474364
804,0.38333719968795776,0.4655652940273285,0.93,0.85,0.0006299605249474364
805,0.3844491243362427,0.465596467256546,0.93,0.85,0.0006299605249474364
806,0.38352927565574646,0.46562889218330383,0.93,0.85,0.0006299605249474364
807,0.3835148513317108,0.46565425395965576,0.93,0.85,0.0006299605249474364
808,0.38530197739601135,0.4654251039028168,0.93,0.85,0.0006299605249474364
809,0.3835048973560333,0.465316504240036,0.93,0.85,0.0006299605249474364
810,0.3835216164588928,0.46526938676834106,0.93,0.85,0.0006299605249474364
811,0.3832123577594757,0.46525946259498596,0.93,0.85,0.0006299605249474364
812,0.383538156747818,0.46531566977500916,0.93,0.85,0.0006299605249474364
813,0.38358479738235474,0.46540987491607666,0.93,0.85,0.0006299605249474364
814,0.3833642899990082,0.4655160903930664,0.93,0.85,0.0006299605249474364
815,0.3833337426185608,0.4656536877155304,0.93,0.85,0.0006299605249474364
816,0.3838512897491455,0.4657433331012726,0.93,0.85,0.0006299605249474364
817,0.3832955062389374,0.4658747613430023,0.93,0.85,0.0006299605249474364
818,0.3827829658985138,0.46595945954322815,0.93,0.85,0.0006299605249474364
819,0.3847194314002991,0.4654196500778198,0.93,0.85,0.0006299605249474364
820,0.38385435938835144,0.46535640954971313,0.93,0.85,0.0006299605249474364
821,0.3832109868526459,0.4658648371696472,0.93,0.85,0.0006299605249474364
822,0.3850720524787903,0.4675706923007965,0.93,0.85,0.0006299605249474364
823,0.38560736179351807,0.4705163836479187,0.93,0.84,0.0006299605249474364
824,0.38380661606788635,0.47333869338035583,0.93,0.84,0.0006299605249474364
825,0.38447871804237366,0.4745662808418274,0.93,0.84,0.0006299605249474364
826,0.3848802447319031,0.4737069606781006,0.93,0.84,0.0006299605249474364
827,0.38366806507110596,0.47275280952453613,0.93,0.84,0.0006299605249474364
828,0.3835805058479309,0.47175583243370056,0.93,0.84,0.0006299605249474364
829,0.3835742473602295,0.470182865858078,0.93,0.84,0.0006299605249474364
830,0.3839011788368225,0.4687269628047943,0.93,0.84,0.0006299605249474364
831,0.3835277855396271,0.4676227569580078,0.93,0.85,0.0006299605249474364
832,0.3837363123893738,0.46687889099121094,0.93,0.85,0.0006299605249474364
833,0.38348501920700073,0.46639806032180786,0.93,0.85,0.0006299605249474364
834,0.3835935592651367,0.4661455452442169,0.93,0.85,0.0006299605249474364
835,0.3836679458618164,0.4659934341907501,0.93,0.85,0.0006299605249474364
836,0.3839603662490845,0.4659595787525177,0.93,0.85,0.0006299605249474364
837,0.3842275142669678,0.46591565012931824,0.93,0.85,0.0006299605249474364
838,0.3828020393848419,0.46587902307510376,0.93,0.85,0.0006299605249474364
839,0.38391032814979553,0.46590012311935425,0.93,0.85,0.0006299605249474364
840,0.3833678066730499,0.46593689918518066,0.93,0.85,0.0006299605249474364
841,0.38361576199531555,0.4659915566444397,0.93,0.85,0.0006299605249474364
842,0.3837694227695465,0.46608954668045044,0.93,0.85,0.0006299605249474364
843,0.38354647159576416,0.4662052392959595,0.93,0.85,0.0006299605249474364
844,0.38376280665397644,0.4663761258125305,0.93,0.85,0.0006299605249474364
845,0.3834863603115082,0.4666147530078888,0.93,0.85,0.0006299605249474364
846,0.3835560083389282,0.46680766344070435,0.93,0.85,0.0006299605249474364
847,0.38400447368621826,0.467132568359375,0.93,0.85,0.0006299605249474364
848,0.3832021951675415,0.4674145579338074,0.93,0.85,0.0006299605249474364
849,0.3836807906627655,0.467629075050354,0.93,0.85,0.0006299605249474364
850,0.3834120035171509,0.46782195568084717,0.93,0.85,0.0004999999999999997
851,0.38326743245124817,0.4679659307003021,0.93,0.85,0.0004999999999999997
852,0.3847472667694092,0.46817561984062195,0.93,0.84,0.0004999999999999997
853,0.3827694058418274,0.46831828355789185,0.93,0.84,0.0004999999999999997
854,0.38382163643836975,0.46857911348342896,0.93,0.84,0.0004999999999999997
855,0.38340818881988525,0.46886149048805237,0.93,0.84,0.0004999999999999997
856,0.3836445212364197,0.469323992729187,0.93,0.84,0.0004999999999999997
857,0.38365989923477173,0.4694920480251312,0.93,0.84,0.0004999999999999997
858,0.38346046209335327,0.46939849853515625,0.93,0.84,0.0004999999999999997
859,0.3839460611343384,0.4688359797000885,0.93,0.84,0.0004999999999999997
860,0.3836316168308258,0.46835678815841675,0.93,0.84,0.0004999999999999997
861,0.38367748260498047,0.4675782024860382,0.93,0.85,0.0004999999999999997
862,0.3837760090827942,0.4671041965484619,0.93,0.85,0.0004999999999999997
863,0.3838983178138733,0.4666515290737152,0.93,0.85,0.0004999999999999997
864,0.3832932412624359,0.46625736355781555,0.93,0.85,0.0004999999999999997
865,0.38475605845451355,0.4661344885826111,0.93,0.85,0.0004999999999999997
866,0.38350191712379456,0.4659717082977295,0.93,0.85,0.0004999999999999997
867,0.3831409513950348,0.46576693654060364,0.93,0.85,0.0004999999999999997
868,0.3833930194377899,0.4656325578689575,0.93,0.85,0.0004999999999999997
869,0.38339734077453613,0.46565350890159607,0.93,0.85,0.0004999999999999997
870,0.38290613889694214,0.46576327085494995,0.93,0.85,0.0004999999999999997
871,0.38334202766418457,0.4659532308578491,0.93,0.85,0.0004999999999999997
872,0.38317739963531494,0.4665367007255554,0.93,0.85,0.0004999999999999997
873,0.38190826773643494,0.4695252478122711,0.93,0.84,0.0004999999999999997
874,0.3823224604129791,0.47418540716171265,0.93,0.84,0.0004999999999999997
875,0.38143283128738403,0.46498623490333557,0.93,0.85,0.0004999999999999997
876,0.3805912733078003,0.4647437334060669,0.93,0.85,0.0004999999999999997
877,0.38119179010391235,0.46631959080696106,0.93,0.85,0.0004999999999999997
878,0.38824403285980225,0.4655478596687317,0.92,0.85,0.0004999999999999997
879,0.3817592263221741,0.46755650639533997,0.93,0.85,0.0004999999999999997
880,0.38426682353019714,0.4740288555622101,0.93,0.84,0.0004999999999999997
881,0.38219302892684937,0.4726795256137848,0.93,0.84,0.0004999999999999997
882,0.38326600193977356,0.47410911321640015,0.93,0.84,0.0004999999999999997
883,0.3827497065067291,0.47805655002593994,0.93,0.83,0.0004999999999999997
884,0.38524121046066284,0.4797765612602234,0.93,0.83,0.0004999999999999997
885,0.38462910056114197,0.48065775632858276,0.93,0.83,0.0004999999999999997
886,0.3838455080986023,0.4763520359992981,0.93,0.84,0.0004999999999999997
887,0.38563084602355957,0.4769781529903412,0.93,0.84,0.0004999999999999997
888,0.37486931681632996,0.4766552448272705,0.94,0.84,0.0004999999999999997
889,0.37640970945358276,0.47680023312568665,0.94,0.84,0.0004999999999999997
890,0.3837589621543884,0.4770411252975464,0.93,0.84,0.0004999999999999997
891,0.3824511468410492,0.4773091971874237,0.93,0.84,0.0004999999999999997
892,0.37712687253952026,0.47735416889190674,0.94,0.84,0.0004999999999999997
893,0.37652501463890076,0.47787410020828247,0.94,0.84,0.0004999999999999997
894,0.37998467683792114,0.4822932481765747,0.94,0.84,0.0004999999999999997
895,0.3749110698699951,0.4872005879878998,0.94,0.84,0.0004999999999999997
896,0.3754607141017914,0.4919062554836273,0.94,0.82,0.0004999999999999997
897,0.3740366995334625,0.49463531374931335,0.94,0.82,0.0004999999999999997
898,0.38293537497520447,0.4972490966320038,0.93,0.82,0.0004999999999999997
899,0.3749833405017853,0.49299395084381104,0.94,0.82,0.0004999999999999997
900,0.3727962374687195,0.4909915626049042,0.94,0.81,0.0004999999999999997
901,0.3736848533153534,0.4883407652378082,0.94,0.82,0.0004999999999999997
902,0.37457069754600525,0.48852577805519104,0.94,0.83,0.0004999999999999997
903,0.37719494104385376,0.4770302176475525,0.94,0.84,0.0004999999999999997
904,0.37422633171081543,0.47502434253692627,0.94,0.84,0.0004999999999999997
905,0.37464702129364014,0.4757372736930847,0.94,0.84,0.0004999999999999997
906,0.3764004111289978,0.47729629278182983,0.94,0.84,0.0004999999999999997
907,0.37879714369773865,0.4779360294342041,0.93,0.83,0.0004999999999999997
908,0.37389567494392395,0.47831714153289795,0.94,0.83,0.0004999999999999997
909,0.3758739233016968,0.4783134460449219,0.94,0.83,0.0004999999999999997
910,0.37436896562576294,0.478432834148407,0.94,0.83,0.0004999999999999997
911,0.3738406300544739,0.4785322844982147,0.94,0.84,0.0004999999999999997
912,0.3737991452217102,0.4788432717323303,0.94,0.84,0.0004999999999999997
913,0.3744393289089203,0.48731231689453125,0.94,0.83,0.0004999999999999997
914,0.3736063241958618,0.48812800645828247,0.94,0.83,0.0004999999999999997
915,0.37365779280662537,0.4858536124229431,0.94,0.83,0.0004999999999999997
916,0.3735128343105316,0.4851073920726776,0.94,0.84,0.0004999999999999997
917,0.37397006154060364,0.4908505380153656,0.94,0.83,0.0004999999999999997
918,0.3735616207122803,0.4922899603843689,0.94,0.83,0.0004999999999999997
919,0.37809237837791443,0.4873807430267334,0.94,0.82,0.0004999999999999997
920,0.3733721971511841,0.4860222637653351,0.94,0.82,0.0004999999999999997
921,0.3748435080051422,0.4880404770374298,0.94,0.82,0.0004999999999999997
922,0.3732437193393707,0.48901212215423584,0.94,0.82,0.0004999999999999997
923,0.3743559718132019,0.4890802800655365,0.94,0.82,0.0004999999999999997
924,0.37549442052841187,0.4891780912876129,0.94,0.82,0.0004999999999999997
925,0.37369635701179504,0.4892401397228241,0.94,0.82,0.0004999999999999997
926,0.37519848346710205,0.489429771900177,0.94,0.82,0.0004999999999999997
927,0.3740149438381195,0.4886312484741211,0.94,0.82,0.0004999999999999997
928,0.37378716468811035,0.48702603578567505,0.94,0.82,0.0004999999999999997
929,0.37350308895111084,0.48470520973205566,0.94,0.82,0.0004999999999999997
930,0.3736964464187622,0.4819163382053375,0.94,0.83,0.0004999999999999997
931,0.3741271197795868,0.47959819436073303,0.94,0.84,0.0004999999999999997
932,0.3738822042942047,0.4787731170654297,0.94,0.84,0.0004999999999999997
933,0.37384021282196045,0.47937241196632385,0.94,0.84,0.0004999999999999997
934,0.37364712357521057,0.48058128356933594,0.94,0.83,0.0004999999999999997
935,0.375773549079895,0.4785137474536896,0.94,0.84,0.0004999999999999997
936,0.3734074831008911,0.4772399961948395,0.94,0.84,0.0004999999999999997
937,0.37345731258392334,0.4766671359539032,0.94,0.84,0.0004999999999999997
938,0.37360358238220215,0.4764339029788971,0.94,0.84,0.0004999999999999997
939,0.37596380710601807,0.47639086842536926,0.94,0.84,0.0004999999999999997
940,0.37364649772644043,0.47640979290008545,0.94,0.84,0.0004999999999999997
941,0.37608978152275085,0.4756094813346863,0.94,0.84,0.0004999999999999997
942,0.3736247718334198,0.47516560554504395,0.94,0.84,0.0004999999999999997
943,0.3735787570476532,0.4749961197376251,0.94,0.84,0.0004999999999999997
944,0.373491108417511,0.47499001026153564,0.94,0.84,0.0004999999999999997
945,0.3734777569770813,0.47511401772499084,0.94,0.84,0.0004999999999999997
946,0.3734392523765564,0.4752904772758484,0.94,0.84,0.0004999999999999997
947,0.37337836623191833,0.4755018353462219,0.94,0.84,0.0004999999999999997
948,0.37371790409088135,0.4758533239364624,0.94,0.84,0.0004999999999999997
949,0.37329211831092834,0.4762633442878723,0.94,0.84,0.0004999999999999997
950,0.3737475574016571,0.4767972528934479,0.94,0.84,0.0004999999999999997
951,0.37358543276786804,0.4771506190299988,0.94,0.84,0.0004999999999999997
952,0.37341609597206116,0.4774872064590454,0.94,0.84,0.0004999999999999997
953,0.3741225004196167,0.476963609457016,0.94,0.84,0.0004999999999999997
954,0.3737352788448334,0.4765019118785858,0.94,0.84,0.0004999999999999997
955,0.37442779541015625,0.47612422704696655,0.94,0.84,0.0004999999999999997
956,0.37543678283691406,0.47500717639923096,0.94,0.84,0.0004999999999999997
957,0.37368568778038025,0.47449150681495667,0.94,0.84,0.0004999999999999997
958,0.3735010623931885,0.47422894835472107,0.94,0.84,0.0004999999999999997
959,0.37386882305145264,0.47409290075302124,0.94,0.84,0.0004999999999999997
960,0.37386611104011536,0.4740348160266876,0.94,0.84,0.0004999999999999997
961,0.374734103679657,0.4740777313709259,0.94,0.84,0.0004999999999999997
962,0.3735520541667938,0.4741600453853607,0.94,0.84,0.0004999999999999997
963,0.3730742633342743,0.4742761552333832,0.94,0.84,0.0004999999999999997
964,0.373441606760025,0.4744071960449219,0.94,0.84,0.0004999999999999997
965,0.37341418862342834,0.4745456278324127,0.94,0.84,0.0004999999999999997
966,0.37355685234069824,0.47472327947616577,0.94,0.84,0.0004999999999999997
967,0.37368008494377136,0.47490060329437256,0.94,0.84,0.0004999999999999997
968,0.37378525733947754,0.475104421377182,0.94,0.84,0.0004999999999999997
969,0.3735167384147644,0.4753272533416748,0.94,0.84,0.0004999999999999997
970,0.37405213713645935,0.47548598051071167,0.94,0.84,0.0004999999999999997
971,0.3733309805393219,0.47564518451690674,0.94,0.84,0.0004999999999999997
972,0.37620431184768677,0.4760874807834625,0.94,0.84,0.0004999999999999997
973,0.3737827241420746,0.47643521428108215,0.94,0.84,0.0004999999999999997
974,0.37366703152656555,0.47607240080833435,0.94,0.84,0.0004999999999999997
975,0.3745594322681427,0.4725337326526642,0.94,0.84,0.0004999999999999997
976,0.3733469843864441,0.4699893295764923,0.94,0.85,0.0004999999999999997
977,0.37342095375061035,0.4700053036212921,0.94,0.84,0.0004999999999999997
978,0.37278255820274353,0.4709128439426422,0.94,0.84,0.0004999999999999997
979,0.37348514795303345,0.4739200472831726,0.94,0.84,0.0004999999999999997
980,0.3776724636554718,0.47319328784942627,0.93,0.84,0.0004999999999999997
981,0.3747788369655609,0.4737381637096405,0.94,0.83,0.0004999999999999997
982,0.37326568365097046,0.4771115779876709,0.94,0.83,0.0004999999999999997
983,0.3732258081436157,0.4812930226325989,0.94,0.82,0.0004999999999999997
984,0.37342026829719543,0.4849073886871338,0.94,0.82,0.0004999999999999997
985,0.37342482805252075,0.4871068298816681,0.94,0.82,0.0004999999999999997
986,0.3737254738807678,0.4880068600177765,0.94,0.82,0.0004999999999999997
987,0.3732219338417053,0.4884546995162964,0.94,0.82,0.0004999999999999997
988,0.37385791540145874,0.48872002959251404,0.94,0.82,0.0004999999999999997
989,0.37344375252723694,0.488829106092453,0.94,0.82,0.0004999999999999997
990,0.37403538823127747,0.48892566561698914,0.94,0.82,0.0004999999999999997
991,0.37348777055740356,0.4889666736125946,0.94,0.82,0.0004999999999999997
992,0.3736460506916046,0.48899075388908386,0.94,0.82,0.0004999999999999997
993,0.3740023374557495,0.48890212178230286,0.94,0.82,0.0004999999999999997
994,0.37378475069999695,0.4886306822299957,0.94,0.82,0.0004999999999999997
995,0.3737308382987976,0.48826324939727783,0.94,0.82,0.0004999999999999997
996,0.374182790517807,0.4878331124782562,0.94,0.82,0.0004999999999999997
997,0.37542518973350525,0.4873316287994385,0.94,0.82,0.0004999999999999997
998,0.3736809492111206,0.4868105947971344,0.94,0.82,0.0004999999999999997
999,0.3734667897224426,0.4862457513809204,0.94,0.82,0.0004999999999999997
1000,0.3734876215457916,0.48562195897102356,0.94,0.82,0.0004999999999999997
1001,0.3732776641845703,0.4849814474582672,0.94,0.82,0.00039685026299204955
1002,0.37378811836242676,0.484518826007843,0.94,0.82,0.00039685026299204955
1003,0.3734477162361145,0.4840014576911926,0.94,0.82,0.00039685026299204955
1004,0.3728984594345093,0.48338401317596436,0.94,0.82,0.00039685026299204955
1005,0.37422412633895874,0.4827885031700134,0.94,0.82,0.00039685026299204955
1006,0.3733876347541809,0.4820558428764343,0.94,0.82,0.00039685026299204955
1007,0.37352219223976135,0.48123157024383545,0.94,0.82,0.00039685026299204955
1008,0.3733777701854706,0.48034873604774475,0.94,0.82,0.00039685026299204955
1009,0.37361031770706177,0.47944435477256775,0.94,0.82,0.00039685026299204955
1010,0.37369391322135925,0.4783213436603546,0.94,0.82,0.00039685026299204955
1011,0.37362250685691833,0.4771396517753601,0.94,0.82,0.00039685026299204955
1012,0.37397122383117676,0.4768854081630707,0.94,0.82,0.00039685026299204955
1013,0.37416762113571167,0.47729530930519104,0.94,0.82,0.00039685026299204955
1014,0.3733855187892914,0.4775889217853546,0.94,0.83,0.00039685026299204955
1015,0.37325289845466614,0.4777693450450897,0.94,0.84,0.00039685026299204955
1016,0.3739221692085266,0.477613627910614,0.94,0.84,0.00039685026299204955
1017,0.37340882420539856,0.4773901104927063,0.94,0.84,0.00039685026299204955
1018,0.3734668493270874,0.4772304892539978,0.94,0.84,0.00039685026299204955
1019,0.3736911714076996,0.47710976004600525,0.94,0.84,0.00039685026299204955
1020,0.37397849559783936,0.4763104319572449,0.94,0.84,0.00039685026299204955
1021,0.37379226088523865,0.4756256937980652,0.94,0.84,0.00039685026299204955
1022,0.37366217374801636,0.47503697872161865,0.94,0.84,0.00039685026299204955
1023,0.37409213185310364,0.4741862416267395,0.94,0.84,0.00039685026299204955
1024,0.37387725710868835,0.4731062352657318,0.94,0.84,0.00039685026299204955
1025,0.37383049726486206,0.4716716408729553,0.94,0.84,0.00039685026299204955
1026,0.37371766567230225,0.46997421979904175,0.94,0.84,0.00039685026299204955
1027,0.37368300557136536,0.46918225288391113,0.94,0.84,0.00039685026299204955
1028,0.3734167814254761,0.4685620963573456,0.94,0.85,0.00039685026299204955
1029,0.373200386762619,0.4681661128997803,0.94,0.85,0.00039685026299204955
1030,0.3736257255077362,0.46767550706863403,0.94,0.85,0.00039685026299204955
1031,0.3737727999687195,0.46697998046875,0.94,0.85,0.00039685026299204955
1032,0.3733583688735962,0.4664456248283386,0.94,0.85,0.00039685026299204955
1033,0.3734011948108673,0.4660134017467499,0.94,0.85,0.00039685026299204955
1034,0.37313544750213623,0.46567150950431824,0.94,0.85,0.00039685026299204955
1035,0.37323665618896484,0.4654337763786316,0.94,0.85,0.00039685026299204955
1036,0.37344419956207275,0.4652610123157501,0.94,0.85,0.00039685026299204955
1037,0.37341222167015076,0.4651336967945099,0.94,0.85,0.00039685026299204955
1038,0.3734756410121918,0.4650782346725464,0.94,0.85,0.00039685026299204955
1039,0.373360276222229,0.4650270342826843,0.94,0.85,0.00039685026299204955
1040,0.37329962849617004,0.4649939239025116,0.94,0.85,0.00039685026299204955
1041,0.37378352880477905,0.4650566577911377,0.94,0.85,0.00039685026299204955
1042,0.37449881434440613,0.4652114808559418,0.94,0.85,0.00039685026299204955
1043,0.37351536750793457,0.465453177690506,0.94,0.85,0.00039685026299204955
1044,0.3733946681022644,0.46572110056877136,0.94,0.85,0.00039685026299204955
1045,0.373580664396286,0.46584147214889526,0.94,0.85,0.00039685026299204955
1046,0.37333258986473083,0.46594002842903137,0.94,0.85,0.00039685026299204955
1047,0.3735584616661072,0.46603232622146606,0.94,0.85,0.00039685026299204955
1048,0.37368109822273254,0.46619442105293274,0.94,0.85,0.00039685026299204955
1049,0.37381213903427124,0.46642592549324036,0.94,0.85,0.00039685026299204955
1050,0.3738359808921814,0.46679016947746277,0.94,0.85,0.00039685026299204955
1051,0.3735373020172119,0.46713787317276,0.94,0.85,0.00039685026299204955
1052,0.37368515133857727,0.4678472578525543,0.94,0.85,0.00039685026299204955
1053,0.37333938479423523,0.4686073362827301,0.94,0.84,0.00039685026299204955
1054,0.3734058737754822,0.46932151913642883,0.94,0.84,0.00039685026299204955
1055,0.373470276594162,0.4700171649456024,0.94,0.84,0.00039685026299204955
1056,0.3733198642730713,0.47064608335494995,0.94,0.84,0.00039685026299204955
1057,0.37348321080207825,0.4710296392440796,0.94,0.84,0.00039685026299204955
1058,0.3734531104564667,0.4713253080844879,0.94,0.84,0.00039685026299204955
1059,0.37345486879348755,0.47148650884628296,0.94,0.84,0.00039685026299204955
1060,0.37347573041915894,0.47152864933013916,0.94,0.84,0.00039685026299204955
1061,0.37378379702568054,0.4712831377983093,0.94,0.84,0.00039685026299204955
1062,0.37348026037216187,0.4711351692676544,0.94,0.84,0.00039685026299204955
1063,0.37341153621673584,0.47115257382392883,0.94,0.84,0.00039685026299204955
1064,0.3734460771083832,0.47123077511787415,0.94,0.84,0.00039685026299204955
1065,0.3741413354873657,0.4712361991405487,0.94,0.84,0.00039685026299204955
1066,0.37340283393859863,0.47128522396087646,0.94,0.84,0.00039685026299204955
1067,0.3733789324760437,0.4713417887687683,0.94,0.84,0.00039685026299204955
1068,0.37285301089286804,0.47131815552711487,0.94,0.84,0.00039685026299204955
1069,0.3736039102077484,0.47136542201042175,0.94,0.84,0.00039685026299204955
1070,0.37350842356681824,0.4712473750114441,0.94,0.84,0.00039685026299204955
1071,0.3733837902545929,0.4710450768470764,0.94,0.84,0.00039685026299204955
1072,0.3733966052532196,0.47078120708465576,0.94,0.84,0.00039685026299204955
1073,0.3735915720462799,0.4706439673900604,0.94,0.84,0.00039685026299204955
1074,0.3734370470046997,0.47046834230422974,0.94,0.84,0.00039685026299204955
1075,0.37339070439338684,0.47030410170555115,0.94,0.84,0.00039685026299204955
1076,0.3733542561531067,0.47015807032585144,0.94,0.84,0.00039685026299204955
1077,0.3733392059803009,0.47002071142196655,0.94,0.84,0.00039685026299204955
1078,0.37367916107177734,0.46897071599960327,0.94,0.84,0.00039685026299204955
1079,0.3735322058200836,0.4679913818836212,0.94,0.85,0.00039685026299204955
1080,0.3734433054924011,0.4672809839248657,0.94,0.85,0.00039685026299204955
1081,0.37341567873954773,0.4668141305446625,0.94,0.85,0.00039685026299204955
1082,0.3733627200126648,0.46640095114707947,0.94,0.85,0.00039685026299204955
1083,0.37337198853492737,0.4661625027656555,0.94,0.85,0.00039685026299204955
1084,0.3734312057495117,0.46605026721954346,0.94,0.85,0.00039685026299204955
1085,0.373431921005249,0.46597152948379517,0.94,0.85,0.00039685026299204955
1086,0.3733578622341156,0.46590888500213623,0.94,0.85,0.00039685026299204955
1087,0.37338027358055115,0.46584469079971313,0.94,0.85,0.00039685026299204955
1088,0.3732745349407196,0.4658256769180298,0.94,0.85,0.00039685026299204955
1089,0.3732469081878662,0.4658058285713196,0.94,0.85,0.00039685026299204955
1090,0.373384028673172,0.465778112411499,0.94,0.85,0.00039685026299204955
1091,0.37420162558555603,0.46574077010154724,0.94,0.85,0.00039685026299204955
1092,0.37350472807884216,0.4657191038131714,0.94,0.85,0.00039685026299204955
1093,0.3733646869659424,0.465708464384079,0.94,0.85,0.00039685026299204955
1094,0.3734661936759949,0.4657689332962036,0.94,0.85,0.00039685026299204955
1095,0.3735227584838867,0.4658554494380951,0.94,0.85,0.00039685026299204955
1096,0.37340614199638367,0.4660346508026123,0.94,0.85,0.00039685026299204955
1097,0.3734399080276489,0.4662715196609497,0.94,0.85,0.00039685026299204955
1098,0.3733845055103302,0.4665549099445343,0.94,0.85,0.00039685026299204955
1099,0.37329307198524475,0.4668542742729187,0.94,0.85,0.00039685026299204955
1100,0.373808354139328,0.4670795202255249,0.94,0.85,0.00039685026299204955
1101,0.3737501800060272,0.4688742458820343,0.94,0.85,0.00039685026299204955
1102,0.3734956979751587,0.4712375998497009,0.94,0.84,0.00031498026247371797
1103,0.37327659130096436,0.47292616963386536,0.94,0.84,0.00031498026247371797
1104,0.3747692108154297,0.4739918112754822,0.94,0.84,0.00031498026247371797
1105,0.3734061121940613,0.474962055683136,0.94,0.84,0.00031498026247371797
1106,0.3736308217048645,0.4757183790206909,0.94,0.84,0.00031498026247371797
1107,0.37291544675827026,0.47625666856765747,0.94,0.84,0.00031498026247371797
1108,0.37387412786483765,0.47644317150115967,0.94,0.84,0.00031498026247371797
1109,0.37353792786598206,0.4765113592147827,0.94,0.84,0.00031498026247371797
1110,0.37348541617393494,0.47656163573265076,0.94,0.84,0.00031498026247371797
1111,0.37337929010391235,0.47659754753112793,0.94,0.84,0.00031498026247371797
1112,0.37355536222457886,0.47657638788223267,0.94,0.84,0.00031498026247371797
1113,0.37382784485816956,0.47665101289749146,0.94,0.84,0.00031498026247371797
1114,0.373927503824234,0.4767010807991028,0.94,0.84,0.00031498026247371797
1115,0.37338244915008545,0.4767352342605591,0.94,0.84,0.00031498026247371797
1116,0.37356483936309814,0.47669029235839844,0.94,0.84,0.00031498026247371797
1117,0.3738175630569458,0.47656384110450745,0.94,0.84,0.00031498026247371797
1118,0.37342190742492676,0.4763922095298767,0.94,0.84,0.00031498026247371797
1119,0.37170058488845825,0.47598952054977417,0.94,0.84,0.00031498026247371797
1120,0.37348443269729614,0.4754194915294647,0.94,0.84,0.00031498026247371797
1121,0.37343770265579224,0.4747977554798126,0.94,0.84,0.00031498026247371797
1122,0.3741900622844696,0.4739881753921509,0.94,0.84,0.00031498026247371797
1123,0.3733479976654053,0.4731552004814148,0.94,0.84,0.00031498026247371797
1124,0.37358054518699646,0.4723946452140808,0.94,0.84,0.00031498026247371797
1125,0.3736043870449066,0.4710656702518463,0.94,0.84,0.00031498026247371797
1126,0.3734477758407593,0.4698197543621063,0.94,0.84,0.00031498026247371797
1127,0.3736022114753723,0.4687432050704956,0.94,0.85,0.00031498026247371797
1128,0.37343159317970276,0.46791690587997437,0.94,0.85,0.00031498026247371797
1129,0.3734060227870941,0.46741414070129395,0.94,0.85,0.00031498026247371797
1130,0.3736273944377899,0.46705126762390137,0.94,0.85,0.00031498026247371797
1131,0.37340113520622253,0.46678054332733154,0.94,0.85,0.00031498026247371797
1132,0.3726845979690552,0.4665646255016327,0.94,0.85,0.00031498026247371797
1133,0.3735896348953247,0.4663585424423218,0.94,0.85,0.00031498026247371797
1134,0.3734723925590515,0.46613702178001404,0.94,0.85,0.00031498026247371797
1135,0.37604713439941406,0.4678174555301666,0.94,0.85,0.00031498026247371797
1136,0.3733829855918884,0.47119423747062683,0.94,0.84,0.00031498026247371797
1137,0.37338361144065857,0.4729900658130646,0.94,0.84,0.00031498026247371797
1138,0.373434841632843,0.473457932472229,0.94,0.84,0.00031498026247371797
1139,0.37364235520362854,0.47353702783584595,0.94,0.84,0.00031498026247371797
1140,0.3735824227333069,0.47352951765060425,0.94,0.84,0.00031498026247371797
1141,0.3736095428466797,0.4735056757926941,0.94,0.84,0.00031498026247371797
1142,0.3731592893600464,0.47348281741142273,0.94,0.84,0.00031498026247371797
1143,0.373757541179657,0.4734634757041931,0.94,0.84,0.00031498026247371797
1144,0.374633252620697,0.47344502806663513,0.94,0.84,0.00031498026247371797
1145,0.3732973337173462,0.47343119978904724,0.94,0.84,0.00031498026247371797
1146,0.37349796295166016,0.4734210669994354,0.94,0.84,0.00031498026247371797
1147,0.37391093373298645,0.4734155237674713,0.94,0.84,0.00031498026247371797
1148,0.3733316659927368,0.47341033816337585,0.94,0.84,0.00031498026247371797
1149,0.3732060492038727,0.4734060764312744,0.94,0.84,0.00031498026247371797
1150,0.3734041154384613,0.473402738571167,0.94,0.84,0.00031498026247371797
1151,0.3734547793865204,0.473399817943573,0.94,0.84,0.00031498026247371797
1152,0.373579204082489,0.473396897315979,0.94,0.84,0.00031498026247371797
1153,0.37357452511787415,0.47339552640914917,0.94,0.84,0.00031498026247371797
1154,0.37363171577453613,0.4733964800834656,0.94,0.84,0.00031498026247371797
1155,0.37335890531539917,0.47339802980422974,0.94,0.84,0.00031498026247371797
1156,0.37358593940734863,0.4734014570713043,0.94,0.84,0.00031498026247371797
1157,0.37362030148506165,0.47340860962867737,0.94,0.84,0.00031498026247371797
1158,0.37340396642684937,0.47341522574424744,0.94,0.84,0.00031498026247371797
1159,0.37405017018318176,0.47342297434806824,0.94,0.84,0.00031498026247371797
1160,0.3735680878162384,0.4734276235103607,0.94,0.84,0.00031498026247371797
1161,0.37441691756248474,0.47342175245285034,0.94,0.84,0.00031498026247371797
1162,0.3733908534049988,0.4734005331993103,0.94,0.84,0.00031498026247371797
1163,0.37519219517707825,0.47329452633857727,0.94,0.84,0.00031498026247371797
1164,0.3735278248786926,0.4730508327484131,0.94,0.84,0.00031498026247371797
1165,0.37335091829299927,0.4725892245769501,0.94,0.84,0.00031498026247371797
1166,0.37404704093933105,0.47139498591423035,0.94,0.84,0.00031498026247371797
1167,0.3756457567214966,0.4719139039516449,0.94,0.84,0.00031498026247371797
1168,0.3733396828174591,0.4723554849624634,0.94,0.84,0.00031498026247371797
1169,0.3734423518180847,0.4727269113063812,0.94,0.84,0.00031498026247371797
1170,0.373418390750885,0.4730072021484375,0.94,0.84,0.00031498026247371797
1171,0.37371280789375305,0.4732360541820526,0.94,0.84,0.00031498026247371797
1172,0.37334728240966797,0.47341424226760864,0.94,0.84,0.00031498026247371797
1173,0.37207382917404175,0.4735867381095886,0.94,0.84,0.00031498026247371797
1174,0.3734915554523468,0.4737664759159088,0.94,0.84,0.00031498026247371797
1175,0.37337779998779297,0.4739588499069214,0.94,0.84,0.00031498026247371797
1176,0.3734263479709625,0.4741676449775696,0.94,0.84,0.00031498026247371797
1177,0.3734641373157501,0.47440025210380554,0.94,0.84,0.00031498026247371797
1178,0.37358224391937256,0.474650502204895,0.94,0.84,0.00031498026247371797
1179,0.3734613060951233,0.4748939275741577,0.94,0.84,0.00031498026247371797
1180,0.37336093187332153,0.4751494228839874,0.94,0.84,0.00031498026247371797
1181,0.37347275018692017,0.47535350918769836,0.94,0.84,0.00031498026247371797
1182,0.37334728240966797,0.4755457639694214,0.94,0.84,0.00031498026247371797
1183,0.3736264109611511,0.4755993187427521,0.94,0.84,0.00031498026247371797
1184,0.37374642491340637,0.47554293274879456,0.94,0.84,0.00031498026247371797
1185,0.3734950125217438,0.4754514992237091,0.94,0.84,0.00031498026247371797
1186,0.3737460970878601,0.4753042459487915,0.94,0.84,0.00031498026247371797
1187,0.37358084321022034,0.47517335414886475,0.94,0.84,0.00031498026247371797
1188,0.3734997808933258,0.47495731711387634,0.94,0.84,0.00031498026247371797
1189,0.373380571603775,0.4747600853443146,0.94,0.84,0.00031498026247371797
1190,0.3731031119823456,0.4745674133300781,0.94,0.84,0.00031498026247371797
1191,0.37329167127609253,0.4743928611278534,0.94,0.84,0.00031498026247371797
1192,0.37373092770576477,0.47426819801330566,0.94,0.84,0.00031498026247371797
1193,0.3737640082836151,0.4741203188896179,0.94,0.84,0.00031498026247371797
1194,0.3734326660633087,0.4739571511745453,0.94,0.84,0.00031498026247371797
1195,0.37371885776519775,0.47352656722068787,0.94,0.84,0.00031498026247371797
1196,0.3733406960964203,0.4730602204799652,0.94,0.84,0.00031498026247371797
1197,0.37327903509140015,0.4725518822669983,0.94,0.84,0.00031498026247371797
1198,0.37339842319488525,0.4720391035079956,0.94,0.84,0.00031498026247371797
1199,0.3734951317310333,0.47177058458328247,0.94,0.84,0.00031498026247371797
1200,0.37378397583961487,0.4714111089706421,0.94,0.84,0.00031498026247371797
1201,0.37336480617523193,0.47103890776634216,0.94,0.84,0.00031498026247371797
1202,0.37323546409606934,0.4707070291042328,0.94,0.84,0.00031498026247371797
1203,0.3737746477127075,0.470061719417572,0.94,0.84,0.00031498026247371797
1204,0.37343013286590576,0.46943092346191406,0.94,0.84,0.00031498026247371797
1205,0.37352994084358215,0.4688819646835327,0.94,0.84,0.00031498026247371797
1206,0.3728466331958771,0.46832188963890076,0.94,0.84,0.00031498026247371797
1207,0.37334322929382324,0.4678700268268585,0.94,0.84,0.00031498026247371797
1208,0.3733495771884918,0.46742844581604004,0.94,0.85,0.00031498026247371797
1209,0.37333574891090393,0.4670403003692627,0.94,0.85,0.00031498026247371797
1210,0.37375685572624207,0.46694454550743103,0.94,0.85,0.00031498026247371797
1211,0.37335366010665894,0.46698638796806335,0.94,0.85,0.00031498026247371797
1212,0.37352675199508667,0.46693551540374756,0.94,0.85,0.00031498026247371797
1213,0.37331849336624146,0.46690234541893005,0.94,0.85,0.00031498026247371797
1214,0.3740110695362091,0.46684467792510986,0.94,0.85,0.00031498026247371797
1215,0.3733261227607727,0.4668058753013611,0.94,0.85,0.00031498026247371797
1216,0.3733323812484741,0.4668004512786865,0.94,0.85,0.00031498026247371797
1217,0.37397095561027527,0.4671017527580261,0.94,0.85,0.00031498026247371797
1218,0.3733667731285095,0.46753165125846863,0.94,0.85,0.00031498026247371797
1219,0.3732966184616089,0.46791839599609375,0.94,0.84,0.00031498026247371797
1220,0.37366849184036255,0.46831101179122925,0.94,0.84,0.0002499999999999997
1221,0.37331169843673706,0.4686066508293152,0.94,0.84,0.0002499999999999997
1222,0.3738817274570465,0.46914902329444885,0.94,0.84,0.0002499999999999997
1223,0.37318211793899536,0.4696560204029083,0.94,0.84,0.0002499999999999997
1224,0.3733854591846466,0.47003403306007385,0.94,0.84,0.0002499999999999997
1225,0.373332142829895,0.47032248973846436,0.94,0.84,0.0002499999999999997
1226,0.3732048273086548,0.4705085754394531,0.94,0.84,0.0002499999999999997
1227,0.3732863962650299,0.4706639349460602,0.94,0.84,0.0002499999999999997
1228,0.37336552143096924,0.470857709646225,0.94,0.84,0.0002499999999999997
1229,0.37336060404777527,0.47103527188301086,0.94,0.84,0.0002499999999999997
1230,0.3733678460121155,0.47121185064315796,0.94,0.84,0.0002499999999999997
1231,0.37269213795661926,0.4713589549064636,0.94,0.84,0.0002499999999999997
1232,0.373393714427948,0.47158774733543396,0.94,0.84,0.0002499999999999997
1233,0.3733610510826111,0.47175541520118713,0.94,0.84,0.0002499999999999997
1234,0.3734114468097687,0.47192713618278503,0.94,0.84,0.0002499999999999997
1235,0.37368661165237427,0.4720490574836731,0.94,0.84,0.0002499999999999997
1236,0.37342768907546997,0.47217804193496704,0.94,0.84,0.0002499999999999997
1237,0.37344375252723694,0.47219517827033997,0.94,0.84,0.0002499999999999997
1238,0.3734321594238281,0.47227442264556885,0.94,0.84,0.0002499999999999997
1239,0.37331077456474304,0.47234997153282166,0.94,0.84,0.0002499999999999997
1240,0.3733295202255249,0.4724264442920685,0.94,0.84,0.0002499999999999997
1241,0.37346282601356506,0.4724884033203125,0.94,0.84,0.0002499999999999997
1242,0.3736463487148285,0.47257110476493835,0.94,0.84,0.0002499999999999997
1243,0.3736838400363922,0.47290703654289246,0.94,0.84,0.0002499999999999997
1244,0.3735756576061249,0.47311145067214966,0.94,0.84,0.0002499999999999997
1245,0.37346434593200684,0.473211407661438,0.94,0.84,0.0002499999999999997
1246,0.3735535740852356,0.4732609689235687,0.94,0.84,0.0002499999999999997
1247,0.3733654022216797,0.4733089804649353,0.94,0.84,0.0002499999999999997
1248,0.37374773621559143,0.47337761521339417,0.94,0.84,0.0002499999999999997
1249,0.3734026253223419,0.4734424948692322,0.94,0.84,0.0002499999999999997
1250,0.37332040071487427,0.4735059440135956,0.94,0.84,0.0002499999999999997
1251,0.37388724088668823,0.47355708479881287,0.94,0.84,0.0002499999999999997
1252,0.3733324110507965,0.47360533475875854,0.94,0.84,0.0002499999999999997
1253,0.37333789467811584,0.47364652156829834,0.94,0.84,0.0002499999999999997
1254,0.37331172823905945,0.4736856520175934,0.94,0.84,0.0002499999999999997
1255,0.37414178252220154,0.4737880825996399,0.94,0.84,0.0002499999999999997
1256,0.37332725524902344,0.47388535737991333,0.94,0.84,0.0002499999999999997
1257,0.37381958961486816,0.4739750921726227,0.94,0.84,0.0002499999999999997
1258,0.37338772416114807,0.47406208515167236,0.94,0.84,0.0002499999999999997
1259,0.37395697832107544,0.47405028343200684,0.94,0.84,0.0002499999999999997
1260,0.3734418451786041,0.4740283191204071,0.94,0.84,0.0002499999999999997
1261,0.37349024415016174,0.47401127219200134,0.94,0.84,0.0002499999999999997
1262,0.3744814395904541,0.4736946225166321,0.94,0.84,0.0002499999999999997
1263,0.3733106255531311,0.47315457463264465,0.94,0.84,0.0002499999999999997
1264,0.3733227252960205,0.4723246395587921,0.94,0.84,0.0002499999999999997
1265,0.37330323457717896,0.47121524810791016,0.94,0.84,0.0002499999999999997
1266,0.3760170340538025,0.47021278738975525,0.94,0.84,0.0002499999999999997
1267,0.3735325336456299,0.4694409668445587,0.94,0.84,0.0002499999999999997
1268,0.37337198853492737,0.4686152935028076,0.94,0.84,0.0002499999999999997
1269,0.37332457304000854,0.46792006492614746,0.94,0.85,0.0002499999999999997
1270,0.3734480142593384,0.46724846959114075,0.94,0.85,0.0002499999999999997
1271,0.3735472857952118,0.4667093753814697,0.94,0.85,0.0002499999999999997
1272,0.37342798709869385,0.4662777781486511,0.94,0.85,0.0002499999999999997
1273,0.373365581035614,0.4659634530544281,0.94,0.85,0.0002499999999999997
1274,0.3732958734035492,0.46568602323532104,0.94,0.85,0.0002499999999999997
1275,0.3735174834728241,0.4655204713344574,0.94,0.85,0.0002499999999999997
1276,0.37337982654571533,0.4653843641281128,0.94,0.85,0.0002499999999999997
1277,0.3733527362346649,0.46527233719825745,0.94,0.85,0.0002499999999999997
1278,0.37348636984825134,0.4652065932750702,0.94,0.85,0.0002499999999999997
1279,0.37329742312431335,0.46514180302619934,0.94,0.85,0.0002499999999999997
1280,0.37259289622306824,0.46513983607292175,0.94,0.85,0.0002499999999999997
1281,0.37335944175720215,0.46513649821281433,0.94,0.85,0.0002499999999999997
1282,0.37326839566230774,0.4651319980621338,0.94,0.85,0.0002499999999999997
1283,0.3740178644657135,0.4651156961917877,0.94,0.85,0.0002499999999999997
1284,0.37330684065818787,0.46509793400764465,0.94,0.85,0.0002499999999999997
1285,0.3729742169380188,0.4651881158351898,0.94,0.85,0.0002499999999999997
1286,0.3733735978603363,0.4652722179889679,0.94,0.85,0.0002499999999999997
1287,0.3733657896518707,0.4653659164905548,0.94,0.85,0.0002499999999999997
1288,0.37344127893447876,0.4654649496078491,0.94,0.85,0.0002499999999999997
1289,0.3731328248977661,0.46555542945861816,0.94,0.85,0.0002499999999999997
1290,0.3735077679157257,0.46557095646858215,0.94,0.85,0.0002499999999999997
1291,0.3739148676395416,0.4655584990978241,0.94,0.85,0.0002499999999999997
1292,0.37440037727355957,0.46566200256347656,0.94,0.85,0.0002499999999999997
1293,0.3735569715499878,0.4657162129878998,0.94,0.85,0.0002499999999999997
1294,0.37445536255836487,0.4658244252204895,0.94,0.85,0.0002499999999999997
1295,0.37336283922195435,0.4659341871738434,0.94,0.85,0.0002499999999999997
1296,0.3731074631214142,0.4660381078720093,0.94,0.85,0.0002499999999999997
1297,0.37349486351013184,0.4662712514400482,0.94,0.85,0.0002499999999999997
1298,0.3733932077884674,0.46650978922843933,0.94,0.85,0.0002499999999999997
1299,0.3730641305446625,0.4667178988456726,0.94,0.85,0.0002499999999999997
1300,0.37313997745513916,0.46690815687179565,0.94,0.85,0.0002499999999999997
1301,0.3745875656604767,0.4672154188156128,0.94,0.85,0.0002499999999999997
1302,0.3736101984977722,0.4676254689693451,0.94,0.85,0.0002499999999999997
1303,0.373230904340744,0.4680359661579132,0.94,0.85,0.0002499999999999997
1304,0.37338000535964966,0.46850016713142395,0.94,0.85,0.0002499999999999997
1305,0.37365418672561646,0.46959859132766724,0.94,0.85,0.0002499999999999997
1306,0.3732852637767792,0.4707847535610199,0.94,0.84,0.0002499999999999997
1307,0.37338221073150635,0.4718972444534302,0.94,0.84,0.0002499999999999997
1308,0.37344890832901,0.47267094254493713,0.94,0.84,0.0002499999999999997
1309,0.37299221754074097,0.47332000732421875,0.94,0.84,0.0002499999999999997
1310,0.37344059348106384,0.4737791121006012,0.94,0.84,0.0002499999999999997
1311,0.3734138607978821,0.4741573631763458,0.94,0.84,0.0002499999999999997
1312,0.3735107481479645,0.4743323028087616,0.94,0.84,0.0002499999999999997
1313,0.3735229969024658,0.4742671847343445,0.94,0.84,0.0002499999999999997
1314,0.3733559548854828,0.474172979593277,0.94,0.84,0.0002499999999999997
1315,0.37339702248573303,0.47407999634742737,0.94,0.84,0.0002499999999999997
1316,0.37340691685676575,0.4739939868450165,0.94,0.84,0.0002499999999999997
1317,0.37357407808303833,0.47383353114128113,0.94,0.84,0.0002499999999999997
1318,0.37346622347831726,0.47369274497032166,0.94,0.84,0.0002499999999999997
1319,0.3738847076892853,0.47329020500183105,0.94,0.84,0.0002499999999999997
1320,0.37383681535720825,0.4731472134590149,0.94,0.84,0.0002499999999999997
1321,0.3736008107662201,0.4730819761753082,0.94,0.84,0.00019842513149602464
1322,0.3734419345855713,0.473029226064682,0.94,0.84,0.00019842513149602464
1323,0.3734268844127655,0.4730759859085083,0.94,0.84,0.00019842513149602464
1324,0.3734404444694519,0.47314560413360596,0.94,0.84,0.00019842513149602464
1325,0.37341538071632385,0.4731239080429077,0.94,0.84,0.00019842513149602464
1326,0.37342461943626404,0.47306564450263977,0.94,0.84,0.00019842513149602464
1327,0.3734242916107178,0.4730144441127777,0.94,0.84,0.00019842513149602464
1328,0.373849093914032,0.47270190715789795,0.94,0.84,0.00019842513149602464
1329,0.37331849336624146,0.4723845422267914,0.94,0.84,0.00019842513149602464
1330,0.373335063457489,0.47207069396972656,0.94,0.84,0.00019842513149602464
1331,0.37338417768478394,0.4717946946620941,0.94,0.84,0.00019842513149602464
1332,0.37413519620895386,0.4715651273727417,0.94,0.84,0.00019842513149602464
1333,0.37329593300819397,0.4713478088378906,0.94,0.84,0.00019842513149602464
1334,0.37335720658302307,0.47112590074539185,0.94,0.84,0.00019842513149602464
1335,0.37346598505973816,0.4709912836551666,0.94,0.84,0.00019842513149602464
1336,0.3733293116092682,0.47087234258651733,0.94,0.84,0.00019842513149602464
1337,0.3736090064048767,0.47054100036621094,0.94,0.84,0.00019842513149602464
1338,0.373343288898468,0.47031158208847046,0.94,0.84,0.00019842513149602464
1339,0.3734332323074341,0.4699716567993164,0.94,0.84,0.00019842513149602464
1340,0.37357205152511597,0.46979621052742004,0.94,0.84,0.00019842513149602464
1341,0.37337756156921387,0.4695854187011719,0.94,0.84,0.00019842513149602464
1342,0.37328872084617615,0.46935221552848816,0.94,0.84,0.00019842513149602464
1343,0.37344035506248474,0.4691931903362274,0.94,0.84,0.00019842513149602464
1344,0.373575359582901,0.4687907099723816,0.94,0.84,0.00019842513149602464
1345,0.37352317571640015,0.4686364233493805,0.94,0.84,0.00019842513149602464
1346,0.37339362502098083,0.46855440735816956,0.94,0.84,0.00019842513149602464
1347,0.37331461906433105,0.468483567237854,0.94,0.84,0.00019842513149602464
1348,0.37325602769851685,0.4684377610683441,0.94,0.84,0.00019842513149602464
1349,0.37329357862472534,0.46840372681617737,0.94,0.84,0.00019842513149602464
1350,0.3733408749103546,0.4683482050895691,0.94,0.84,0.00019842513149602464
1351,0.37333378195762634,0.4682554602622986,0.94,0.84,0.00019842513149602464
1352,0.373739629983902,0.46811312437057495,0.94,0.84,0.00019842513149602464
1353,0.37362033128738403,0.46828708052635193,0.94,0.84,0.00019842513149602464
1354,0.3735707104206085,0.46847784519195557,0.94,0.84,0.00019842513149602464
1355,0.37359166145324707,0.46904757618904114,0.94,0.84,0.00019842513149602464
1356,0.37330958247184753,0.46962979435920715,0.94,0.84,0.00019842513149602464
1357,0.3733184337615967,0.4701498746871948,0.94,0.84,0.00019842513149602464
1358,0.37331902980804443,0.470617413520813,0.94,0.84,0.00019842513149602464
1359,0.3736034631729126,0.4710708558559418,0.94,0.84,0.00019842513149602464
1360,0.3731755316257477,0.4713957607746124,0.94,0.84,0.00019842513149602464
1361,0.37342891097068787,0.47164058685302734,0.94,0.84,0.00019842513149602464
1362,0.3733142912387848,0.47185248136520386,0.94,0.84,0.00019842513149602464
1363,0.37354955077171326,0.4721316993236542,0.94,0.84,0.00019842513149602464
1364,0.3733721077442169,0.4723784625530243,0.94,0.84,0.00019842513149602464
1365,0.37351563572883606,0.47264373302459717,0.94,0.84,0.00019842513149602464
1366,0.3733399212360382,0.4728359878063202,0.94,0.84,0.00019842513149602464
1367,0.3736380338668823,0.47315162420272827,0.94,0.84,0.00019842513149602464
1368,0.37334999442100525,0.47334006428718567,0.94,0.84,0.00019842513149602464
1369,0.3734299838542938,0.4734310507774353,0.94,0.84,0.00019842513149602464
1370,0.37330055236816406,0.473494291305542,0.94,0.84,0.00019842513149602464
1371,0.37352409958839417,0.47352808713912964,0.94,0.84,0.00019842513149602464
1372,0.3736453354358673,0.473543256521225,0.94,0.84,0.00019842513149602464
1373,0.3733302056789398,0.4735545217990875,0.94,0.84,0.00019842513149602464
1374,0.3733842074871063,0.4735598862171173,0.94,0.84,0.00019842513149602464
1375,0.3732944428920746,0.4735642969608307,0.94,0.84,0.00019842513149602464
1376,0.3733476400375366,0.4735691547393799,0.94,0.84,0.00019842513149602464
1377,0.37352463603019714,0.47356513142585754,0.94,0.84,0.00019842513149602464
1378,0.3778429925441742,0.4735798239707947,0.93,0.84,0.00019842513149602464
1379,0.37332355976104736,0.4735916554927826,0.94,0.84,0.00019842513149602464
1380,0.3737119436264038,0.4735809564590454,0.94,0.84,0.00019842513149602464
1381,0.37334001064300537,0.47356513142585754,0.94,0.84,0.00019842513149602464
1382,0.37328070402145386,0.4735480844974518,0.94,0.84,0.00019842513149602464
1383,0.3735073506832123,0.4735320806503296,0.94,0.84,0.00019842513149602464
1384,0.3739229142665863,0.4734821319580078,0.94,0.84,0.00019842513149602464
1385,0.37334224581718445,0.4734319746494293,0.94,0.84,0.00019842513149602464
1386,0.37340766191482544,0.47337913513183594,0.94,0.84,0.00019842513149602464
1387,0.37357914447784424,0.4732915163040161,0.94,0.84,0.00019842513149602464
1388,0.3737033009529114,0.47319522500038147,0.94,0.84,0.00019842513149602464
1389,0.37366101145744324,0.4731448292732239,0.94,0.84,0.00019842513149602464
1390,0.3732599914073944,0.4730992615222931,0.94,0.84,0.00019842513149602464
1391,0.3733525574207306,0.47306180000305176,0.94,0.84,0.00019842513149602464
1392,0.3735714852809906,0.4730159342288971,0.94,0.84,0.00019842513149602464
1393,0.373687207698822,0.4729785919189453,0.94,0.84,0.00019842513149602464
1394,0.37330833077430725,0.47294169664382935,0.94,0.84,0.00019842513149602464
1395,0.3733164966106415,0.472905695438385,0.94,0.84,0.00019842513149602464
1396,0.37330853939056396,0.47287434339523315,0.94,0.84,0.00019842513149602464
1397,0.37341558933258057,0.47284141182899475,0.94,0.84,0.00019842513149602464
1398,0.37333765625953674,0.47280240058898926,0.94,0.84,0.00019842513149602464
1399,0.37347567081451416,0.4727412462234497,0.94,0.84,0.00019842513149602464
1400,0.37342822551727295,0.47267037630081177,0.94,0.84,0.00019842513149602464
1401,0.3763626217842102,0.4728962182998657,0.94,0.84,0.00019842513149602464
1402,0.37330126762390137,0.47304579615592957,0.94,0.84,0.00019842513149602464
1403,0.37381917238235474,0.47319790720939636,0.94,0.84,0.00019842513149602464
1404,0.3730830252170563,0.4732789993286133,0.94,0.84,0.00019842513149602464
1405,0.3733747601509094,0.47331881523132324,0.94,0.84,0.00019842513149602464
1406,0.3736383020877838,0.473341703414917,0.94,0.84,0.00019842513149602464
1407,0.3732835352420807,0.4733562767505646,0.94,0.84,0.00019842513149602464
1408,0.37344229221343994,0.4733640253543854,0.94,0.84,0.00019842513149602464
1409,0.37347152829170227,0.47336554527282715,0.94,0.84,0.00019842513149602464
1410,0.37320223450660706,0.47336673736572266,0.94,0.84,0.00019842513149602464
1411,0.37363719940185547,0.4733639061450958,0.94,0.84,0.00019842513149602464
1412,0.37336209416389465,0.4733605980873108,0.94,0.84,0.00019842513149602464
1413,0.3733891248703003,0.4733579754829407,0.94,0.84,0.00019842513149602464
1414,0.373563677072525,0.4733544588088989,0.94,0.84,0.00019842513149602464
1415,0.3736009895801544,0.47334709763526917,0.94,0.84,0.00019842513149602464
1416,0.3733544647693634,0.47333693504333496,0.94,0.84,0.00019842513149602464
1417,0.3734265863895416,0.4733263850212097,0.94,0.84,0.00019842513149602464
1418,0.373352587223053,0.47331416606903076,0.94,0.84,0.00019842513149602464
1419,0.3734470307826996,0.4733024537563324,0.94,0.84,0.00019842513149602464
1420,0.37354111671447754,0.4732927978038788,0.94,0.84,0.00019842513149602464
1421,0.3732472360134125,0.4732833206653595,0.94,0.84,0.00019842513149602464
1422,0.37339961528778076,0.4732653796672821,0.94,0.84,0.00015749013123685888
1423,0.3740270733833313,0.47325393557548523,0.94,0.84,0.00015749013123685888
1424,0.3733079135417938,0.4732430577278137,0.94,0.84,0.00015749013123685888
1425,0.3733593821525574,0.47322654724121094,0.94,0.84,0.00015749013123685888
1426,0.3734374940395355,0.4732241928577423,0.94,0.84,0.00015749013123685888
1427,0.37333565950393677,0.4732199013233185,0.94,0.84,0.00015749013123685888
1428,0.3735734224319458,0.4732106029987335,0.94,0.84,0.00015749013123685888
1429,0.3735678493976593,0.47316238284111023,0.94,0.84,0.00015749013123685888
1430,0.37355276942253113,0.47306954860687256,0.94,0.84,0.00015749013123685888
1431,0.3736712336540222,0.4729172885417938,0.94,0.84,0.00015749013123685888
1432,0.3730369508266449,0.47271862626075745,0.94,0.84,0.00015749013123685888
1433,0.3738386631011963,0.4722624719142914,0.94,0.84,0.00015749013123685888
1434,0.3734062612056732,0.4716728925704956,0.94,0.84,0.00015749013123685888
1435,0.3733551502227783,0.47094041109085083,0.94,0.84,0.00015749013123685888
1436,0.37356194853782654,0.4700874090194702,0.94,0.84,0.00015749013123685888
1437,0.3734305202960968,0.4693719148635864,0.94,0.84,0.00015749013123685888
1438,0.37382811307907104,0.4690951108932495,0.94,0.84,0.00015749013123685888
1439,0.3733437657356262,0.46885058283805847,0.94,0.84,0.00015749013123685888
1440,0.3732439875602722,0.46865013241767883,0.94,0.84,0.00015749013123685888
1441,0.37357279658317566,0.4684760272502899,0.94,0.84,0.00015749013123685888
1442,0.3734230399131775,0.46852973103523254,0.94,0.84,0.00015749013123685888
1443,0.37348076701164246,0.4688197076320648,0.94,0.84,0.00015749013123685888
1444,0.3733465075492859,0.4690800905227661,0.94,0.84,0.00015749013123685888
1445,0.3733135163784027,0.46929028630256653,0.94,0.84,0.00015749013123685888
1446,0.37346893548965454,0.46947506070137024,0.94,0.84,0.00015749013123685888
1447,0.3732786178588867,0.46962639689445496,0.94,0.84,0.00015749013123685888
1448,0.37370243668556213,0.46976935863494873,0.94,0.84,0.00015749013123685888
1449,0.37339702248573303,0.4699127972126007,0.94,0.84,0.00015749013123685888
1450,0.3733692169189453,0.4700351655483246,0.94,0.84,0.00015749013123685888
1451,0.37355828285217285,0.47017738223075867,0.94,0.84,0.00015749013123685888
1452,0.37372756004333496,0.47030505537986755,0.94,0.84,0.00015749013123685888
1453,0.3732927441596985,0.47042420506477356,0.94,0.84,0.00015749013123685888
1454,0.3732907772064209,0.47052001953125,0.94,0.84,0.00015749013123685888
1455,0.3731311857700348,0.4705776274204254,0.94,0.84,0.00015749013123685888
1456,0.3733239769935608,0.4705891013145447,0.94,0.84,0.00015749013123685888
1457,0.37378737330436707,0.4705745577812195,0.94,0.84,0.00015749013123685888
1458,0.3732936382293701,0.4705587327480316,0.94,0.84,0.00015749013123685888
1459,0.37334445118904114,0.4705512225627899,0.94,0.84,0.00015749013123685888
1460,0.3734245300292969,0.47057488560676575,0.94,0.84,0.00015749013123685888
1461,0.37333884835243225,0.4706003665924072,0.94,0.84,0.00015749013123685888
1462,0.3749929368495941,0.47076931595802307,0.94,0.84,0.00015749013123685888
1463,0.3743986487388611,0.47102370858192444,0.94,0.84,0.00015749013123685888
1464,0.3733134865760803,0.47122910618782043,0.94,0.84,0.00015749013123685888
1465,0.37346935272216797,0.4714506268501282,0.94,0.84,0.00015749013123685888
1466,0.37355107069015503,0.4715053141117096,0.94,0.84,0.00015749013123685888
1467,0.3732976019382477,0.4715338945388794,0.94,0.84,0.00015749013123685888
1468,0.3732841908931732,0.4715569019317627,0.94,0.84,0.00015749013123685888
1469,0.37379541993141174,0.4711805582046509,0.94,0.84,0.00015749013123685888
1470,0.373361736536026,0.4708130657672882,0.94,0.84,0.00015749013123685888
1471,0.37336066365242004,0.470457524061203,0.94,0.84,0.00015749013123685888
1472,0.37357988953590393,0.47014811635017395,0.94,0.84,0.00015749013123685888
1473,0.3737567961215973,0.4698666036128998,0.94,0.84,0.00015749013123685888
1474,0.37391147017478943,0.4696427881717682,0.94,0.84,0.00015749013123685888
1475,0.37288883328437805,0.4694101810455322,0.94,0.84,0.00015749013123685888
1476,0.37333178520202637,0.46920570731163025,0.94,0.84,0.00015749013123685888
1477,0.37339335680007935,0.4690781533718109,0.94,0.84,0.00015749013123685888
1478,0.37345167994499207,0.46896690130233765,0.94,0.84,0.00015749013123685888
1479,0.37351158261299133,0.46875500679016113,0.94,0.84,0.00015749013123685888
1480,0.37335139513015747,0.46851226687431335,0.94,0.84,0.00015749013123685888
1481,0.3732437193393707,0.46829211711883545,0.94,0.84,0.00015749013123685888
1482,0.373291939496994,0.46809250116348267,0.94,0.84,0.00015749013123685888
1483,0.3733223080635071,0.46793442964553833,0.94,0.84,0.00015749013123685888
1484,0.37345412373542786,0.4678967297077179,0.94,0.84,0.00015749013123685888
1485,0.3732956349849701,0.46787029504776,0.94,0.84,0.00015749013123685888
1486,0.3734271228313446,0.467773973941803,0.94,0.84,0.00015749013123685888
1487,0.3733362555503845,0.4677160680294037,0.94,0.84,0.00015749013123685888
1488,0.3734360933303833,0.46758607029914856,0.94,0.84,0.00015749013123685888
1489,0.3736574947834015,0.4675648510456085,0.94,0.84,0.00015749013123685888
1490,0.37358447909355164,0.46758148074150085,0.94,0.84,0.00015749013123685888
1491,0.37352532148361206,0.4676377475261688,0.94,0.84,0.00015749013123685888
1492,0.3734056353569031,0.467650443315506,0.94,0.84,0.00015749013123685888
1493,0.3733035624027252,0.4676663279533386,0.94,0.84,0.00015749013123685888
1494,0.37340763211250305,0.4677719473838806,0.94,0.84,0.00015749013123685888
1495,0.3734351098537445,0.46785175800323486,0.94,0.84,0.00015749013123685888
1496,0.3733050525188446,0.4679172933101654,0.94,0.84,0.00015749013123685888
1497,0.37341731786727905,0.46804481744766235,0.94,0.84,0.00015749013123685888
1498,0.37339550256729126,0.4681635797023773,0.94,0.84,0.00015749013123685888
1499,0.3735261559486389,0.4684826731681824,0.94,0.84,0.00015749013123685888
1500,0.37335023283958435,0.46874016523361206,0.94,0.84,0.00015749013123685888
1501,0.37345317006111145,0.4689069390296936,0.94,0.84,0.00015749013123685888
1502,0.3734067678451538,0.4692607522010803,0.94,0.84,0.00015749013123685888
1503,0.37345609068870544,0.4696396589279175,0.94,0.84,0.00015749013123685888
1504,0.3733501136302948,0.4699130654335022,0.94,0.84,0.00015749013123685888
1505,0.37325727939605713,0.47015389800071716,0.94,0.84,0.00015749013123685888
1506,0.3732714354991913,0.4703684151172638,0.94,0.84,0.00015749013123685888
1507,0.3733592629432678,0.47053268551826477,0.94,0.84,0.00015749013123685888
1508,0.3733033835887909,0.4707018733024597,0.94,0.84,0.00015749013123685888
1509,0.373329758644104,0.4708506464958191,0.94,0.84,0.00015749013123685888
1510,0.3733256161212921,0.47093668580055237,0.94,0.84,0.00015749013123685888
1511,0.3733612895011902,0.4710473120212555,0.94,0.84,0.00015749013123685888
1512,0.3733883202075958,0.47118890285491943,0.94,0.84,0.00015749013123685888
1513,0.37332287430763245,0.4713016450405121,0.94,0.84,0.00015749013123685888
1514,0.3732950687408447,0.4714038074016571,0.94,0.84,0.00015749013123685888
1515,0.3732588589191437,0.47149109840393066,0.94,0.84,0.00015749013123685888
1516,0.37340107560157776,0.4714870750904083,0.94,0.84,0.00015749013123685888
1517,0.37327852845191956,0.47148045897483826,0.94,0.84,0.00015749013123685888
1518,0.3733714818954468,0.4714438319206238,0.94,0.84,0.00015749013123685888
1519,0.373428076505661,0.4714237153530121,0.94,0.84,0.00015749013123685888
1520,0.37345603108406067,0.47141972184181213,0.94,0.84,0.00015749013123685888
1521,0.3733261823654175,0.47141167521476746,0.94,0.84,0.00015749013123685888
1522,0.3732859790325165,0.4714111387729645,0.94,0.84,0.00015749013123685888
1523,0.3733246326446533,0.471487432718277,0.94,0.84,0.00012499999999999976
1524,0.37338709831237793,0.4715096354484558,0.94,0.84,0.00012499999999999976
1525,0.37348347902297974,0.47152450680732727,0.94,0.84,0.00012499999999999976
1526,0.37371471524238586,0.47151267528533936,0.94,0.84,0.00012499999999999976
1527,0.37435412406921387,0.4725190997123718,0.94,0.84,0.00012499999999999976
1528,0.37337225675582886,0.47311902046203613,0.94,0.84,0.00012499999999999976
1529,0.3738460838794708,0.4734843373298645,0.94,0.84,0.00012499999999999976
1530,0.3733762800693512,0.47374314069747925,0.94,0.84,0.00012499999999999976
1531,0.37357261776924133,0.47394588589668274,0.94,0.84,0.00012499999999999976
1532,0.37336719036102295,0.47410979866981506,0.94,0.84,0.00012499999999999976
1533,0.3735170364379883,0.47423672676086426,0.94,0.84,0.00012499999999999976
1534,0.3733441233634949,0.4743507504463196,0.94,0.84,0.00012499999999999976
1535,0.3733660578727722,0.47442954778671265,0.94,0.84,0.00012499999999999976
1536,0.37327826023101807,0.4745042026042938,0.94,0.84,0.00012499999999999976
1537,0.3733747899532318,0.47456279397010803,0.94,0.84,0.00012499999999999976
1538,0.3733308017253876,0.4746054410934448,0.94,0.84,0.00012499999999999976
1539,0.3733047544956207,0.4746415317058563,0.94,0.84,0.00012499999999999976
1540,0.3735978603363037,0.4746752977371216,0.94,0.84,0.00012499999999999976
1541,0.3736675977706909,0.47467562556266785,0.94,0.84,0.00012499999999999976
1542,0.3733242154121399,0.47468024492263794,0.94,0.84,0.00012499999999999976
1543,0.37359946966171265,0.4746110439300537,0.94,0.84,0.00012499999999999976
1544,0.37347498536109924,0.4745548665523529,0.94,0.84,0.00012499999999999976
1545,0.37347346544265747,0.47449761629104614,0.94,0.84,0.00012499999999999976
1546,0.37355050444602966,0.4744141399860382,0.94,0.84,0.00012499999999999976
1547,0.3732678294181824,0.47434374690055847,0.94,0.84,0.00012499999999999976
1548,0.373765766620636,0.47428637742996216,0.94,0.84,0.00012499999999999976
1549,0.37345191836357117,0.47421205043792725,0.94,0.84,0.00012499999999999976
1550,0.373350590467453,0.4741387963294983,0.94,0.84,0.00012499999999999976
1551,0.37342506647109985,0.47405901551246643,0.94,0.84,0.00012499999999999976
1552,0.3733383119106293,0.4739677309989929,0.94,0.84,0.00012499999999999976
1553,0.37346598505973816,0.4738398790359497,0.94,0.84,0.00012499999999999976
1554,0.3735092580318451,0.473704069852829,0.94,0.84,0.00012499999999999976
1555,0.3732268512248993,0.4735710918903351,0.94,0.84,0.00012499999999999976
1556,0.37335965037345886,0.47344204783439636,0.94,0.84,0.00012499999999999976
1557,0.3734297454357147,0.47326698899269104,0.94,0.84,0.00012499999999999976
1558,0.37356430292129517,0.4731963276863098,0.94,0.84,0.00012499999999999976
1559,0.3734084963798523,0.4731251895427704,0.94,0.84,0.00012499999999999976
1560,0.37339866161346436,0.4730544984340668,0.94,0.84,0.00012499999999999976
1561,0.37329909205436707,0.47298794984817505,0.94,0.84,0.00012499999999999976
1562,0.3733759820461273,0.4729361832141876,0.94,0.84,0.00012499999999999976
1563,0.37345167994499207,0.4728403091430664,0.94,0.84,0.00012499999999999976
1564,0.3733442425727844,0.47272419929504395,0.94,0.84,0.00012499999999999976
1565,0.373450368642807,0.47260573506355286,0.94,0.84,0.00012499999999999976
1566,0.37363579869270325,0.47234898805618286,0.94,0.84,0.00012499999999999976
1567,0.3730911314487457,0.47205743193626404,0.94,0.84,0.00012499999999999976
1568,0.37343376874923706,0.47174587845802307,0.94,0.84,0.00012499999999999976
1569,0.3733375072479248,0.4714283049106598,0.94,0.84,0.00012499999999999976
1570,0.37339454889297485,0.47114208340644836,0.94,0.84,0.00012499999999999976
1571,0.3734034299850464,0.47084763646125793,0.94,0.84,0.00012499999999999976
1572,0.373294472694397,0.47056201100349426,0.94,0.84,0.00012499999999999976
1573,0.3739349842071533,0.47020599246025085,0.94,0.84,0.00012499999999999976
1574,0.3735666275024414,0.46994340419769287,0.94,0.84,0.00012499999999999976
1575,0.3733123540878296,0.46968433260917664,0.94,0.84,0.00012499999999999976
1576,0.3734061121940613,0.46945419907569885,0.94,0.84,0.00012499999999999976
1577,0.37335145473480225,0.46923279762268066,0.94,0.84,0.00012499999999999976
1578,0.3733307123184204,0.46914368867874146,0.94,0.84,0.00012499999999999976
1579,0.37331143021583557,0.46907123923301697,0.94,0.84,0.00012499999999999976
1580,0.37335965037345886,0.46901431679725647,0.94,0.84,0.00012499999999999976
1581,0.3733135461807251,0.4689124822616577,0.94,0.84,0.00012499999999999976
1582,0.3734683096408844,0.4688999652862549,0.94,0.84,0.00012499999999999976
1583,0.3733912408351898,0.4688587188720703,0.94,0.84,0.00012499999999999976
1584,0.37327632308006287,0.46882164478302,0.94,0.84,0.00012499999999999976
1585,0.3733295798301697,0.4688114523887634,0.94,0.84,0.00012499999999999976
1586,0.3734906315803528,0.4687667787075043,0.94,0.84,0.00012499999999999976
1587,0.3731449842453003,0.4689030051231384,0.94,0.84,0.00012499999999999976
1588,0.3733755946159363,0.469034880399704,0.94,0.84,0.00012499999999999976
1589,0.37340477108955383,0.4691600799560547,0.94,0.84,0.00012499999999999976
1590,0.37350037693977356,0.4692750573158264,0.94,0.84,0.00012499999999999976
1591,0.3733190894126892,0.4693671464920044,0.94,0.84,0.00012499999999999976
1592,0.373320609331131,0.46942365169525146,0.94,0.84,0.00012499999999999976
1593,0.37339651584625244,0.4694249629974365,0.94,0.84,0.00012499999999999976
1594,0.37346047163009644,0.469483882188797,0.94,0.84,0.00012499999999999976
1595,0.3733355700969696,0.4695099890232086,0.94,0.84,0.00012499999999999976
1596,0.373454213142395,0.4695172905921936,0.94,0.84,0.00012499999999999976
1597,0.3732891380786896,0.46952658891677856,0.94,0.84,0.00012499999999999976
1598,0.3733164072036743,0.4695397913455963,0.94,0.84,0.00012499999999999976
1599,0.3733733296394348,0.469508558511734,0.94,0.84,0.00012499999999999976
1600,0.3735376000404358,0.469516396522522,0.94,0.84,0.00012499999999999976
1601,0.37338295578956604,0.4695635735988617,0.94,0.84,0.00012499999999999976
1602,0.3732881247997284,0.46958866715431213,0.94,0.84,0.00012499999999999976
1603,0.3733648657798767,0.46959254145622253,0.94,0.84,0.00012499999999999976
1604,0.37340420484542847,0.4696423411369324,0.94,0.84,0.00012499999999999976
1605,0.3733803629875183,0.4696732461452484,0.94,0.84,0.00012499999999999976
1606,0.37325814366340637,0.46987488865852356,0.94,0.84,0.00012499999999999976
1607,0.37330174446105957,0.4700525403022766,0.94,0.84,0.00012499999999999976
1608,0.37308621406555176,0.47020140290260315,0.94,0.84,0.00012499999999999976
1609,0.3735969066619873,0.4703996181488037,0.94,0.84,0.00012499999999999976
1610,0.37330520153045654,0.47057488560676575,0.94,0.84,0.00012499999999999976
1611,0.37339842319488525,0.4707989990711212,0.94,0.84,0.00012499999999999976
1612,0.37344682216644287,0.47093287110328674,0.94,0.84,0.00012499999999999976
1613,0.373475581407547,0.47098708152770996,0.94,0.84,0.00012499999999999976
1614,0.3734070062637329,0.47111976146698,0.94,0.84,0.00012499999999999976
1615,0.37326401472091675,0.4712298512458801,0.94,0.84,0.00012499999999999976
1616,0.37328723073005676,0.4713127911090851,0.94,0.84,0.00012499999999999976
1617,0.3737623691558838,0.47124290466308594,0.94,0.84,0.00012499999999999976
1618,0.3733033239841461,0.4711621105670929,0.94,0.84,0.00012499999999999976
1619,0.3732592463493347,0.47108402848243713,0.94,0.84,0.00012499999999999976
1620,0.37366363406181335,0.4706343412399292,0.94,0.84,0.00012499999999999976
1621,0.3733294606208801,0.4701927602291107,0.94,0.84,0.00012499999999999976
1622,0.3733171820640564,0.46975648403167725,0.94,0.84,0.00012499999999999976
1623,0.37364766001701355,0.46917301416397095,0.94,0.84,0.00012499999999999976
1624,0.3733268082141876,0.46862122416496277,0.94,0.84,0.0001
1625,0.37330397963523865,0.4682227373123169,0.94,0.84,0.0001
1626,0.3733901083469391,0.46788668632507324,0.94,0.84,0.0001
1627,0.37344101071357727,0.4676009714603424,0.94,0.84,0.0001
1628,0.37348926067352295,0.46722257137298584,0.94,0.85,0.0001
1629,0.37337496876716614,0.46690523624420166,0.94,0.85,0.0001
1630,0.3735974431037903,0.4664122760295868,0.94,0.85,0.0001
1631,0.3733888566493988,0.46600356698036194,0.94,0.85,0.0001
1632,0.3732816278934479,0.4656752645969391,0.94,0.85,0.0001
1633,0.37332573533058167,0.4654085040092468,0.94,0.85,0.0001
1634,0.3732284903526306,0.4651915729045868,0.94,0.85,0.0001
1635,0.3733386695384979,0.46501824259757996,0.94,0.85,0.0001
1636,0.3735675513744354,0.4648910462856293,0.94,0.85,0.0001
1637,0.3733411729335785,0.46476417779922485,0.94,0.85,0.0001
1638,0.37332603335380554,0.46465378999710083,0.94,0.85,0.0001
1639,0.3764176666736603,0.4643595814704895,0.94,0.85,0.0001
1640,0.3733382821083069,0.46416717767715454,0.94,0.85,0.0001
1641,0.3733229339122772,0.4640388786792755,0.94,0.85,0.0001
1642,0.37334659695625305,0.46394839882850647,0.94,0.85,0.0001
1643,0.3736119866371155,0.46389731764793396,0.94,0.85,0.0001
1644,0.37369483709335327,0.46390441060066223,0.94,0.85,0.0001
1645,0.373318076133728,0.4639102518558502,0.94,0.85,0.0001
1646,0.3734871745109558,0.46396350860595703,0.94,0.85,0.0001
1647,0.3733097016811371,0.46401846408843994,0.94,0.85,0.0001
1648,0.3733242452144623,0.46407362818717957,0.94,0.85,0.0001
1649,0.37327781319618225,0.46412980556488037,0.94,0.85,0.0001
1650,0.3732731342315674,0.4641902446746826,0.94,0.85,0.0001
1651,0.3734138011932373,0.46424400806427,0.94,0.85,0.0001
1652,0.3733094036579132,0.46429443359375,0.94,0.85,0.0001
1653,0.37380385398864746,0.46435096859931946,0.94,0.85,0.0001
1654,0.37350213527679443,0.46441325545310974,0.94,0.85,0.0001
1655,0.3734545111656189,0.4644542932510376,0.94,0.85,0.0001
1656,0.37330421805381775,0.4644967317581177,0.94,0.85,0.0001
1657,0.37352603673934937,0.4645565450191498,0.94,0.85,0.0001
1658,0.37331217527389526,0.46462833881378174,0.94,0.85,0.0001
1659,0.37331661581993103,0.4647026062011719,0.94,0.85,0.0001
1660,0.3732895255088806,0.46477675437927246,0.94,0.85,0.0001
1661,0.37335699796676636,0.46479636430740356,0.94,0.85,0.0001
1662,0.37351182103157043,0.46482449769973755,0.94,0.85,0.0001
1663,0.3733968436717987,0.464848130941391,0.94,0.85,0.0001
1664,0.3734362721443176,0.4648912847042084,0.94,0.85,0.0001
1665,0.37329384684562683,0.4649287462234497,0.94,0.85,0.0001
1666,0.37335559725761414,0.4649563133716583,0.94,0.85,0.0001
1667,0.37335404753685,0.4649975895881653,0.94,0.85,0.0001
1668,0.3734116852283478,0.46504101157188416,0.94,0.85,0.0001
1669,0.3733212947845459,0.46508339047431946,0.94,0.85,0.0001
1670,0.3732893764972687,0.46512171626091003,0.94,0.85,0.0001
1671,0.37347209453582764,0.465157687664032,0.94,0.85,0.0001
1672,0.3733230233192444,0.4652075469493866,0.94,0.85,0.0001
1673,0.3734772503376007,0.46525752544403076,0.94,0.85,0.0001
1674,0.373345285654068,0.4653030335903168,0.94,0.85,0.0001
1675,0.3734041154384613,0.4653514623641968,0.94,0.85,0.0001
1676,0.37352511286735535,0.46542277932167053,0.94,0.85,0.0001
1677,0.3733045160770416,0.46549513936042786,0.94,0.85,0.0001
1678,0.37347927689552307,0.46557462215423584,0.94,0.85,0.0001
1679,0.37321603298187256,0.46563220024108887,0.94,0.85,0.0001
1680,0.373325377702713,0.4656757116317749,0.94,0.85,0.0001
1681,0.37335872650146484,0.465717613697052,0.94,0.85,0.0001
1682,0.37333008646965027,0.4657447040081024,0.94,0.85,0.0001
1683,0.37365642189979553,0.4657576382160187,0.94,0.85,0.0001
1684,0.3736458122730255,0.46576136350631714,0.94,0.85,0.0001
1685,0.373389333486557,0.46578213572502136,0.94,0.85,0.0001
1686,0.37329304218292236,0.46580174565315247,0.94,0.85,0.0001
1687,0.373346745967865,0.4658161401748657,0.94,0.85,0.0001
1688,0.37380585074424744,0.4656194746494293,0.94,0.85,0.0001
1689,0.37330296635627747,0.46545326709747314,0.94,0.85,0.0001
1690,0.37348106503486633,0.46528613567352295,0.94,0.85,0.0001
1691,0.3733691871166229,0.46515488624572754,0.94,0.85,0.0001
1692,0.3751069903373718,0.4651549160480499,0.94,0.85,0.0001
1693,0.3734748065471649,0.46515777707099915,0.94,0.85,0.0001
1694,0.37372148036956787,0.4651722311973572,0.94,0.85,0.0001
1695,0.37333348393440247,0.46519070863723755,0.94,0.85,0.0001
1696,0.3733924627304077,0.46521925926208496,0.94,0.85,0.0001
1697,0.37331318855285645,0.46523892879486084,0.94,0.85,0.0001
1698,0.37343963980674744,0.4652647376060486,0.94,0.85,0.0001
1699,0.3734758496284485,0.46528172492980957,0.94,0.85,0.0001
1700,0.373378723859787,0.4652804136276245,0.94,0.85,0.0001
1701,0.3732815682888031,0.4652802348136902,0.94,0.85,0.0001
1702,0.3732890188694,0.46527934074401855,0.94,0.85,0.0001
1703,0.3734995722770691,0.4653540849685669,0.94,0.85,0.0001
1704,0.3732829988002777,0.4654178321361542,0.94,0.85,0.0001
1705,0.373333215713501,0.4654967784881592,0.94,0.85,0.0001
1706,0.37378790974617004,0.46557438373565674,0.94,0.85,0.0001
1707,0.37325572967529297,0.4656371772289276,0.94,0.85,0.0001
1708,0.373324990272522,0.465719997882843,0.94,0.85,0.0001
1709,0.37312549352645874,0.4657699465751648,0.94,0.85,0.0001
1710,0.3734852075576782,0.46581390500068665,0.94,0.85,0.0001
1711,0.3733258545398712,0.4658482074737549,0.94,0.85,0.0001
1712,0.37335944175720215,0.46592944860458374,0.94,0.85,0.0001
1713,0.3736525774002075,0.4660583734512329,0.94,0.85,0.0001
1714,0.3735937774181366,0.4660821855068207,0.94,0.85,0.0001
1715,0.3733355402946472,0.4661029577255249,0.94,0.85,0.0001
1716,0.37333014607429504,0.4661068022251129,0.94,0.85,0.0001
1717,0.3738434612751007,0.46658819913864136,0.94,0.85,0.0001
1718,0.37328213453292847,0.4670754373073578,0.94,0.85,0.0001
1719,0.37353965640068054,0.46759629249572754,0.94,0.84,0.0001
1720,0.37396904826164246,0.46784594655036926,0.94,0.84,0.0001
1721,0.3734263479709625,0.46804535388946533,0.94,0.84,0.0001
1722,0.3736661672592163,0.4680819809436798,0.94,0.84,0.0001
1723,0.37333357334136963,0.46811896562576294,0.94,0.84,0.0001
1724,0.3733890950679779,0.46816569566726685,0.94,0.84,0.0001
1725,0.37332046031951904,0.4682057201862335,0.94,0.84,0.0001
1726,0.3733123540878296,0.4682415723800659,0.94,0.84,0.0001
1727,0.3734124004840851,0.4683131277561188,0.94,0.84,0.0001
1728,0.37332576513290405,0.46836787462234497,0.94,0.84,0.0001
1729,0.3733093738555908,0.4683990180492401,0.94,0.84,0.0001
1730,0.3733861446380615,0.4684208929538727,0.94,0.84,0.0001
1731,0.3745191991329193,0.46843457221984863,0.94,0.84,0.0001
1732,0.37344464659690857,0.46834248304367065,0.94,0.84,0.0001
1733,0.3733866810798645,0.4682075083255768,0.94,0.84,0.0001
1734,0.3733457624912262,0.468077152967453,0.94,0.84,0.0001
1735,0.37261760234832764,0.46793705224990845,0.94,0.84,0.0001
1736,0.37374138832092285,0.46773654222488403,0.94,0.84,0.0001
1737,0.37377792596817017,0.4674755930900574,0.94,0.85,0.0001
