,train loss,val loss,train acc,val acc,lr
0,0.7224054932594299,0.6992049217224121,0.27,0.36,0.001
1,0.7036364078521729,0.6895677447319031,0.33,0.45,0.001
2,0.6856981515884399,0.6809290051460266,0.54,0.71,0.001
3,0.6756865978240967,0.672322154045105,0.71,0.75,0.001
4,0.6635395288467407,0.6634154319763184,0.75,0.75,0.001
5,0.6560510993003845,0.655103325843811,0.79,0.74,0.001
6,0.6442919373512268,0.6469132900238037,0.8,0.74,0.001
7,0.627562940120697,0.6386530995368958,0.81,0.73,0.001
8,0.6206561923027039,0.6300668120384216,0.77,0.71,0.001
9,0.6102083325386047,0.6214293837547302,0.75,0.67,0.001
10,0.5846125483512878,0.6134080290794373,0.78,0.67,0.001
11,0.5828133225440979,0.6095187664031982,0.73,0.65,0.001
12,0.5655307769775391,0.6186918616294861,0.74,0.64,0.001
13,0.5639416575431824,0.6135039329528809,0.73,0.63,0.001
14,0.5527310371398926,0.6011800169944763,0.74,0.66,0.001
15,0.5489687919616699,0.5917151570320129,0.74,0.69,0.001
16,0.5374305844306946,0.5845625400543213,0.79,0.71,0.001
17,0.5350086688995361,0.5779381394386292,0.79,0.73,0.001
18,0.523128092288971,0.5705951452255249,0.77,0.74,0.001
19,0.5235075950622559,0.5636887550354004,0.8,0.73,0.001
20,0.5146396160125732,0.5562652349472046,0.8,0.74,0.001
21,0.5054542422294617,0.5527387857437134,0.81,0.75,0.001
22,0.5087293386459351,0.5523312091827393,0.81,0.76,0.001
23,0.4991018772125244,0.5508852601051331,0.79,0.75,0.001
24,0.4853475093841553,0.544166088104248,0.84,0.77,0.001
25,0.47838664054870605,0.5519137382507324,0.85,0.75,0.001
26,0.4761769771575928,0.5362571477890015,0.87,0.79,0.001
27,0.4940437078475952,0.5618253946304321,0.83,0.7,0.001
28,0.4847201108932495,0.5546445846557617,0.84,0.71,0.001
29,0.47071194648742676,0.5297560095787048,0.88,0.78,0.001
30,0.4796616733074188,0.5301393270492554,0.84,0.78,0.001
31,0.4808758497238159,0.5355079174041748,0.82,0.75,0.001
32,0.46724221110343933,0.550304114818573,0.82,0.74,0.001
33,0.4819675087928772,0.5502060651779175,0.83,0.76,0.001
34,0.4770768880844116,0.5364480018615723,0.85,0.78,0.001
35,0.45093849301338196,0.5267897248268127,0.87,0.76,0.001
36,0.4754118323326111,0.5255722999572754,0.86,0.77,0.001
37,0.4705972671508789,0.5261041522026062,0.84,0.77,0.001
38,0.4635622799396515,0.5320649147033691,0.86,0.76,0.001
39,0.44168296456336975,0.5462179780006409,0.9,0.76,0.001
40,0.4621467590332031,0.5486432909965515,0.85,0.76,0.001
41,0.4643445312976837,0.5349085330963135,0.85,0.77,0.001
42,0.4609593152999878,0.5272429585456848,0.88,0.78,0.001
43,0.4470057189464569,0.5267935991287231,0.88,0.77,0.001
44,0.46362555027008057,0.5263834595680237,0.84,0.76,0.001
45,0.46437087655067444,0.5240421891212463,0.83,0.79,0.001
46,0.44370028376579285,0.5251315832138062,0.88,0.8,0.001
47,0.43231338262557983,0.5262174010276794,0.9,0.78,0.001
48,0.45275869965553284,0.5241681933403015,0.83,0.8,0.001
49,0.4306882619857788,0.5240114331245422,0.89,0.8,0.001
50,0.4385879635810852,0.5257575511932373,0.88,0.77,0.001
51,0.434131383895874,0.5262073278427124,0.9,0.78,0.001
52,0.43133842945098877,0.5244892239570618,0.89,0.79,0.001
53,0.43512412905693054,0.5228019952774048,0.91,0.8,0.001
54,0.4346204102039337,0.5205252170562744,0.9,0.8,0.001
55,0.4328845143318176,0.520247220993042,0.9,0.8,0.001
56,0.4372238218784332,0.5204852819442749,0.88,0.8,0.001
57,0.4263686239719391,0.5199344158172607,0.89,0.8,0.001
58,0.4391525685787201,0.5197080373764038,0.89,0.79,0.001
59,0.43920081853866577,0.5212819576263428,0.89,0.79,0.001
60,0.43174251914024353,0.5197726488113403,0.9,0.78,0.001
61,0.4288709759712219,0.5175827145576477,0.89,0.79,0.001
62,0.43666380643844604,0.5151758790016174,0.88,0.8,0.001
63,0.4203681945800781,0.5200637578964233,0.89,0.78,0.001
64,0.44667696952819824,0.5172622799873352,0.86,0.8,0.001
65,0.43080875277519226,0.5302460789680481,0.89,0.77,0.001
66,0.44391635060310364,0.5289058685302734,0.88,0.78,0.001
67,0.4294032156467438,0.5197661519050598,0.88,0.8,0.001
68,0.4303540289402008,0.5151582956314087,0.89,0.79,0.001
69,0.43049249053001404,0.5130416750907898,0.89,0.79,0.001
70,0.420777827501297,0.511559009552002,0.9,0.8,0.001
71,0.4193073511123657,0.5114746689796448,0.9,0.8,0.001
72,0.43005847930908203,0.5121645331382751,0.89,0.79,0.001
73,0.41531917452812195,0.5142259001731873,0.89,0.8,0.001
74,0.4250073730945587,0.5131722688674927,0.9,0.81,0.001
75,0.4145289361476898,0.5159162878990173,0.91,0.79,0.001
76,0.42388030886650085,0.5166695713996887,0.9,0.79,0.001
77,0.4158687889575958,0.5180909037590027,0.9,0.79,0.001
78,0.41839125752449036,0.514435350894928,0.89,0.79,0.001
79,0.41536468267440796,0.5089035034179688,0.92,0.8,0.001
80,0.41663116216659546,0.5086396932601929,0.91,0.79,0.001
81,0.42028969526290894,0.5091738104820251,0.9,0.8,0.001
82,0.4122046232223511,0.5138723254203796,0.91,0.78,0.001
83,0.4230409264564514,0.520209550857544,0.89,0.79,0.001
84,0.41885748505592346,0.5168136358261108,0.89,0.79,0.001
85,0.4210920035839081,0.5144460797309875,0.89,0.79,0.001
86,0.4177146553993225,0.513200044631958,0.9,0.79,0.001
87,0.41052067279815674,0.5136765837669373,0.9,0.79,0.001
88,0.41170722246170044,0.5103103518486023,0.91,0.8,0.001
89,0.41601860523223877,0.5064073801040649,0.91,0.8,0.001
90,0.41108784079551697,0.5038468837738037,0.91,0.8,0.001
91,0.4182022511959076,0.5032041072845459,0.9,0.8,0.001
92,0.40856850147247314,0.5048177242279053,0.9,0.81,0.001
93,0.4086751639842987,0.5079525709152222,0.9,0.8,0.001
94,0.41828736662864685,0.5088785290718079,0.88,0.8,0.001
95,0.40946465730667114,0.5109677314758301,0.91,0.79,0.001
96,0.4192403554916382,0.5099660158157349,0.89,0.79,0.001
97,0.42130497097969055,0.509148359298706,0.89,0.79,0.001
98,0.4087834656238556,0.506946861743927,0.9,0.8,0.001
99,0.4228799045085907,0.5097612142562866,0.88,0.8,0.001
100,0.4144168794155121,0.518376350402832,0.9,0.79,0.001
101,0.42669355869293213,0.5144087672233582,0.88,0.79,0.001
102,0.3967214524745941,0.5098180174827576,0.92,0.78,0.001
103,0.4226876497268677,0.5076278448104858,0.9,0.8,0.001
104,0.41677841544151306,0.5036488771438599,0.89,0.79,0.001
105,0.4198727309703827,0.505742609500885,0.89,0.79,0.001
106,0.40225911140441895,0.5022843480110168,0.91,0.82,0.001
107,0.4209112524986267,0.502640426158905,0.9,0.81,0.001
108,0.41442885994911194,0.5041865110397339,0.9,0.8,0.001
109,0.40825724601745605,0.5061907172203064,0.9,0.81,0.001
110,0.41207826137542725,0.5128169059753418,0.9,0.79,0.001
111,0.4199247658252716,0.5134792327880859,0.89,0.79,0.001
112,0.4123570919036865,0.5165975689888,0.9,0.79,0.001
113,0.4271286427974701,0.5048271417617798,0.89,0.81,0.001
114,0.4273560345172882,0.5028545260429382,0.88,0.8,0.001
115,0.41442975401878357,0.5050069689750671,0.88,0.8,0.001
116,0.4136146306991577,0.5034612417221069,0.9,0.8,0.001
117,0.4062228500843048,0.5244511365890503,0.91,0.78,0.001
118,0.41302254796028137,0.5296109914779663,0.89,0.77,0.001
119,0.4270811975002289,0.524722695350647,0.9,0.78,0.001
120,0.42308253049850464,0.5065319538116455,0.9,0.79,0.001
121,0.4075808823108673,0.5018151998519897,0.91,0.8,0.001
122,0.4101718068122864,0.49944737553596497,0.9,0.81,0.001
123,0.4132133424282074,0.5036714673042297,0.91,0.8,0.001
124,0.39824119210243225,0.5093362331390381,0.92,0.8,0.001
125,0.4144582748413086,0.5081112384796143,0.9,0.81,0.001
126,0.4061765968799591,0.4988483786582947,0.93,0.8,0.001
127,0.39970076084136963,0.4979846179485321,0.92,0.81,0.001
128,0.42209747433662415,0.496606707572937,0.88,0.81,0.001
129,0.40831318497657776,0.509601354598999,0.91,0.8,0.001
130,0.41939449310302734,0.518122136592865,0.9,0.79,0.001
131,0.4160673916339874,0.5166531205177307,0.89,0.8,0.001
132,0.4065835177898407,0.5082929134368896,0.91,0.8,0.001
133,0.4087410271167755,0.49904125928878784,0.9,0.81,0.001
134,0.40665894746780396,0.4983646869659424,0.91,0.81,0.001
135,0.43479445576667786,0.49853911995887756,0.86,0.8,0.001
136,0.4016447067260742,0.5071908831596375,0.92,0.8,0.001
137,0.4052595794200897,0.5197721123695374,0.91,0.79,0.001
138,0.41140690445899963,0.5168282389640808,0.9,0.79,0.001
139,0.4157733619213104,0.5053036212921143,0.9,0.8,0.001
140,0.40057608485221863,0.4975779056549072,0.91,0.81,0.001
141,0.3998897671699524,0.501335620880127,0.93,0.8,0.001
142,0.41988396644592285,0.5010804533958435,0.9,0.8,0.001
143,0.4195970594882965,0.4981645345687866,0.89,0.81,0.001
144,0.4102276861667633,0.5036782622337341,0.91,0.82,0.001
145,0.40574851632118225,0.5179849863052368,0.91,0.79,0.001
146,0.40725231170654297,0.5194419622421265,0.91,0.8,0.001
147,0.4090214967727661,0.5139898061752319,0.91,0.79,0.001
148,0.4031065106391907,0.49817654490470886,0.91,0.81,0.001
149,0.39946287870407104,0.49554622173309326,0.94,0.81,0.001
150,0.3932492733001709,0.4949468672275543,0.92,0.81,0.001
151,0.39642196893692017,0.49344807863235474,0.92,0.82,0.001
152,0.39453721046447754,0.49500685930252075,0.94,0.81,0.001
153,0.3923141062259674,0.4968462288379669,0.94,0.81,0.001
154,0.3966669738292694,0.4982118606567383,0.93,0.81,0.001
155,0.3888278305530548,0.5005881786346436,0.93,0.81,0.001
156,0.3934483230113983,0.5020560622215271,0.93,0.81,0.001
157,0.4009018838405609,0.49836090207099915,0.94,0.82,0.001
158,0.39528441429138184,0.494269460439682,0.93,0.82,0.001
159,0.39085525274276733,0.490904837846756,0.92,0.82,0.001
160,0.384737104177475,0.489024817943573,0.93,0.83,0.001
161,0.3884292542934418,0.4885839819908142,0.93,0.83,0.001
162,0.3966536223888397,0.495817631483078,0.93,0.82,0.001
163,0.3966640532016754,0.4960615038871765,0.93,0.81,0.001
164,0.38633057475090027,0.49975118041038513,0.95,0.81,0.001
165,0.39028027653694153,0.49635541439056396,0.93,0.81,0.001
166,0.3937024772167206,0.4929650127887726,0.91,0.82,0.001
167,0.39054161310195923,0.4918003976345062,0.92,0.82,0.001
168,0.38978996872901917,0.4925938844680786,0.92,0.82,0.001
169,0.38862523436546326,0.49549809098243713,0.94,0.81,0.001
170,0.38827377557754517,0.4887242019176483,0.94,0.82,0.001
171,0.38852256536483765,0.4897342622280121,0.94,0.82,0.001
172,0.38563087582588196,0.4883772134780884,0.94,0.82,0.001
173,0.3877917230129242,0.4882596731185913,0.94,0.83,0.001
174,0.38621237874031067,0.48625192046165466,0.94,0.83,0.001
175,0.3893198072910309,0.48815101385116577,0.93,0.83,0.001
176,0.392208069562912,0.49640366435050964,0.93,0.81,0.001
177,0.38661858439445496,0.49885690212249756,0.94,0.81,0.001
178,0.3892925977706909,0.4988926351070404,0.93,0.81,0.001
179,0.3912041485309601,0.49379944801330566,0.93,0.82,0.001
180,0.38116684556007385,0.49087318778038025,0.95,0.82,0.001
181,0.39026474952697754,0.49007347226142883,0.93,0.82,0.001
182,0.38476550579071045,0.48881995677948,0.94,0.82,0.001
183,0.3823973834514618,0.4907323122024536,0.95,0.82,0.001
184,0.38152390718460083,0.4959816634654999,0.94,0.81,0.001
185,0.3864743411540985,0.4991573989391327,0.94,0.81,0.001
186,0.3852592408657074,0.49973660707473755,0.94,0.81,0.001
187,0.3833719491958618,0.49689415097236633,0.94,0.82,0.001
188,0.38395145535469055,0.49344223737716675,0.94,0.82,0.001
189,0.3829069435596466,0.4918150305747986,0.94,0.82,0.001
190,0.3794235289096832,0.49011340737342834,0.94,0.82,0.001
191,0.3763915002346039,0.48960286378860474,0.95,0.82,0.001
192,0.37719249725341797,0.48985955119132996,0.94,0.82,0.001
193,0.37931767106056213,0.4983571171760559,0.95,0.81,0.001
194,0.38610783219337463,0.5025591254234314,0.93,0.8,0.001
195,0.3791414499282837,0.4956020414829254,0.95,0.82,0.001
196,0.38284069299697876,0.48804110288619995,0.94,0.82,0.001
197,0.3832968771457672,0.4931064248085022,0.94,0.82,0.001
198,0.37548592686653137,0.4913877844810486,0.95,0.82,0.001
199,0.38322678208351135,0.48254188895225525,0.94,0.83,0.001
200,0.38117122650146484,0.4824589490890503,0.95,0.84,0.001
201,0.3737983703613281,0.48799052834510803,0.95,0.82,0.001
202,0.38430020213127136,0.48859256505966187,0.94,0.82,0.001
203,0.3807598054409027,0.48039111495018005,0.94,0.83,0.001
204,0.37921765446662903,0.48761534690856934,0.94,0.82,0.001
205,0.37452471256256104,0.4878154993057251,0.95,0.82,0.001
206,0.3821123242378235,0.48899564146995544,0.95,0.81,0.001
207,0.37880226969718933,0.4873545467853546,0.95,0.82,0.001
208,0.37693777680397034,0.48851490020751953,0.95,0.82,0.001
209,0.37519341707229614,0.48880890011787415,0.95,0.82,0.001
210,0.3809082806110382,0.4901714026927948,0.95,0.82,0.001
211,0.37694886326789856,0.482619971036911,0.95,0.84,0.001
212,0.3760158121585846,0.48695123195648193,0.95,0.83,0.001
213,0.3773019313812256,0.4860820472240448,0.95,0.82,0.001
214,0.3742021322250366,0.4855622351169586,0.95,0.83,0.001
215,0.37260204553604126,0.48688003420829773,0.96,0.83,0.001
216,0.37012675404548645,0.4893338084220886,0.95,0.83,0.001
217,0.3776876926422119,0.49237510561943054,0.95,0.81,0.001
218,0.3717554211616516,0.4929041564464569,0.95,0.81,0.001
219,0.3725011944770813,0.49112650752067566,0.96,0.82,0.001
220,0.37138134241104126,0.48991766571998596,0.96,0.82,0.001
221,0.3723410367965698,0.48971107602119446,0.96,0.82,0.001
222,0.3729149103164673,0.49239686131477356,0.95,0.82,0.001
223,0.37081336975097656,0.4943591058254242,0.96,0.82,0.001
224,0.3702510595321655,0.494145929813385,0.95,0.82,0.001
225,0.3719978332519531,0.49068668484687805,0.96,0.82,0.001
226,0.3686295449733734,0.4873757064342499,0.96,0.82,0.001
227,0.37751373648643494,0.48605769872665405,0.94,0.83,0.001
228,0.3738110661506653,0.5003241300582886,0.95,0.82,0.001
229,0.3820055425167084,0.5596370100975037,0.95,0.74,0.001
230,0.40907347202301025,0.48800545930862427,0.91,0.82,0.001
231,0.37105461955070496,0.4771033525466919,0.95,0.83,0.001
232,0.37603047490119934,0.4978230595588684,0.95,0.81,0.001
233,0.41040661931037903,0.47679194808006287,0.9,0.85,0.001
234,0.37048399448394775,0.5216134190559387,0.95,0.79,0.001
235,0.3933785557746887,0.5454506278038025,0.93,0.78,0.001
236,0.3997257649898529,0.5045119524002075,0.91,0.8,0.001
237,0.3734866976737976,0.4800753891468048,0.95,0.83,0.001
238,0.38138309121131897,0.49294108152389526,0.94,0.81,0.001
239,0.39776572585105896,0.48639675974845886,0.92,0.82,0.001
240,0.3846968412399292,0.4757367968559265,0.94,0.83,0.001
241,0.3832021951675415,0.49463289976119995,0.95,0.82,0.001
242,0.3842605650424957,0.5239956378936768,0.94,0.77,0.001
243,0.39319169521331787,0.5241139531135559,0.93,0.79,0.001
244,0.38135913014411926,0.4910504221916199,0.95,0.82,0.001
245,0.3801470994949341,0.48217764496803284,0.93,0.83,0.001
246,0.3755780756473541,0.48858872056007385,0.95,0.82,0.001
247,0.37580835819244385,0.48764145374298096,0.94,0.82,0.001
248,0.37410467863082886,0.4778122007846832,0.94,0.83,0.001
249,0.3680514991283417,0.4796217679977417,0.95,0.84,0.001
250,0.37273654341697693,0.483804315328598,0.95,0.84,0.001
251,0.3745877146720886,0.48234573006629944,0.95,0.84,0.001
252,0.36736512184143066,0.48325660824775696,0.96,0.84,0.001
253,0.3724242150783539,0.4865342080593109,0.95,0.83,0.001
254,0.3710803985595703,0.48553478717803955,0.95,0.82,0.001
255,0.36928287148475647,0.4821089804172516,0.96,0.83,0.001
256,0.3675786554813385,0.4778363108634949,0.96,0.83,0.001
257,0.3646414577960968,0.47495606541633606,0.96,0.84,0.001
258,0.36350858211517334,0.4763437509536743,0.96,0.84,0.001
259,0.36371925473213196,0.4827398955821991,0.96,0.83,0.001
260,0.3650212585926056,0.4834979772567749,0.96,0.83,0.001
261,0.3632124662399292,0.4838108718395233,0.96,0.83,0.001
262,0.36677002906799316,0.4830443263053894,0.96,0.83,0.001
263,0.36817699670791626,0.47355955839157104,0.96,0.85,0.001
264,0.3624643385410309,0.4735984802246094,0.96,0.85,0.001
265,0.36346161365509033,0.4748205840587616,0.96,0.85,0.001
266,0.3652467429637909,0.4782106280326843,0.96,0.84,0.001
267,0.36859413981437683,0.47497013211250305,0.96,0.84,0.001
268,0.3630918860435486,0.4732741117477417,0.96,0.84,0.001
269,0.3616611957550049,0.47742587327957153,0.96,0.83,0.001
270,0.3633190989494324,0.4822876751422882,0.96,0.82,0.001
271,0.36528998613357544,0.4840404987335205,0.96,0.82,0.001
272,0.3623846769332886,0.484808087348938,0.96,0.82,0.001
273,0.3618618845939636,0.4857236444950104,0.96,0.82,0.001
274,0.3619406521320343,0.48511314392089844,0.96,0.83,0.001
275,0.36131829023361206,0.48497024178504944,0.96,0.83,0.001
276,0.35913458466529846,0.4848994314670563,0.96,0.83,0.001
277,0.36153480410575867,0.48466479778289795,0.96,0.83,0.001
278,0.3607896864414215,0.48410072922706604,0.96,0.84,0.001
279,0.3618750274181366,0.48314228653907776,0.96,0.84,0.001
280,0.3602434992790222,0.48186126351356506,0.96,0.84,0.001
281,0.36138272285461426,0.48042571544647217,0.96,0.83,0.001
282,0.36209389567375183,0.4784998297691345,0.96,0.84,0.001
283,0.3615915775299072,0.47677499055862427,0.96,0.84,0.001
284,0.3601592183113098,0.47578033804893494,0.96,0.84,0.001
285,0.3602495491504669,0.4757860600948334,0.96,0.84,0.001
286,0.35993877053260803,0.47772419452667236,0.96,0.84,0.001
287,0.3607981503009796,0.4802667200565338,0.96,0.84,0.001
288,0.362535297870636,0.4836207330226898,0.96,0.82,0.001
289,0.36135295033454895,0.4843320846557617,0.96,0.82,0.001
290,0.3598470389842987,0.48550552129745483,0.96,0.82,0.001
291,0.36077988147735596,0.4856920540332794,0.96,0.82,0.001
292,0.3593817949295044,0.483418345451355,0.96,0.82,0.001
293,0.3585229218006134,0.48137661814689636,0.96,0.83,0.001
294,0.3603050708770752,0.4830229878425598,0.96,0.83,0.001
295,0.357585072517395,0.4830910563468933,0.96,0.84,0.001
296,0.3602505028247833,0.4815584421157837,0.96,0.84,0.001
297,0.35922718048095703,0.4800666868686676,0.96,0.84,0.001
298,0.3585623800754547,0.4787464439868927,0.96,0.84,0.001
299,0.3594294488430023,0.47802630066871643,0.96,0.84,0.001
300,0.35883525013923645,0.47777366638183594,0.96,0.84,0.001
301,0.36011406779289246,0.47863876819610596,0.96,0.84,0.001
302,0.3581309914588928,0.479284405708313,0.96,0.84,0.001
303,0.36071276664733887,0.4792648255825043,0.96,0.83,0.001
304,0.35947906970977783,0.4749463200569153,0.96,0.83,0.001
305,0.3582719564437866,0.4730202555656433,0.96,0.84,0.001
306,0.3574720025062561,0.4731467068195343,0.96,0.84,0.001
307,0.35673439502716064,0.48859676718711853,0.96,0.83,0.001
308,0.35698726773262024,0.4912616014480591,0.96,0.83,0.001
309,0.3563380539417267,0.4776914119720459,0.96,0.85,0.001
310,0.3499937355518341,0.4731777310371399,0.97,0.85,0.001
311,0.3490680456161499,0.48041245341300964,0.97,0.83,0.001
312,0.35257261991500854,0.48094820976257324,0.97,0.83,0.001
313,0.35443440079689026,0.48043936491012573,0.96,0.84,0.001
314,0.3543517589569092,0.48289263248443604,0.97,0.84,0.001
315,0.3511847257614136,0.4883853495121002,0.97,0.83,0.001
316,0.350955605506897,0.49123573303222656,0.97,0.82,0.001
317,0.35201388597488403,0.4933072328567505,0.97,0.82,0.001
318,0.3493926227092743,0.4913804531097412,0.97,0.82,0.001
319,0.3500087261199951,0.48603031039237976,0.97,0.83,0.001
320,0.3505817651748657,0.48173704743385315,0.97,0.83,0.001
321,0.353525310754776,0.5216206908226013,0.97,0.79,0.001
322,0.3795727789402008,0.4868375360965729,0.93,0.83,0.001
323,0.3488140404224396,0.4803146421909332,0.97,0.83,0.001
324,0.3530503511428833,0.47616875171661377,0.97,0.84,0.001
325,0.36313965916633606,0.47109702229499817,0.95,0.85,0.001
326,0.34674033522605896,0.4693240225315094,0.97,0.84,0.001
327,0.35959339141845703,0.47193652391433716,0.96,0.83,0.001
328,0.34908413887023926,0.46870145201683044,0.97,0.84,0.001
329,0.3528517782688141,0.46392056345939636,0.97,0.84,0.001
330,0.364187628030777,0.4674849808216095,0.96,0.84,0.001
331,0.3520434498786926,0.47779032588005066,0.97,0.83,0.001
332,0.36160212755203247,0.5194400548934937,0.95,0.78,0.001
333,0.41502147912979126,0.5220085382461548,0.9,0.78,0.001
334,0.45613396167755127,0.5142271518707275,0.85,0.78,0.001
335,0.4287112355232239,0.5079248547554016,0.88,0.8,0.001
336,0.4183920919895172,0.5134655237197876,0.92,0.78,0.001
337,0.41615790128707886,0.5121638774871826,0.9,0.79,0.001
338,0.4030146896839142,0.5144043564796448,0.91,0.78,0.001
339,0.3977459967136383,0.523266613483429,0.92,0.77,0.001
340,0.3811158835887909,0.510208785533905,0.93,0.8,0.001
341,0.3798956573009491,0.4892886281013489,0.94,0.81,0.001
342,0.3745105266571045,0.5000602602958679,0.94,0.82,0.001
343,0.3864450752735138,0.5048015117645264,0.94,0.81,0.001
344,0.37721678614616394,0.5005329251289368,0.94,0.83,0.001
345,0.3857789635658264,0.5035433173179626,0.94,0.82,0.001
346,0.3829103410243988,0.5218693017959595,0.92,0.79,0.001
347,0.37497183680534363,0.5159830451011658,0.94,0.79,0.001
348,0.38326185941696167,0.49863964319229126,0.93,0.82,0.001
349,0.37340518832206726,0.49307170510292053,0.94,0.83,0.001
350,0.37674129009246826,0.4861237704753876,0.94,0.84,0.001
351,0.37260836362838745,0.47899749875068665,0.94,0.84,0.001
352,0.37054044008255005,0.4784715175628662,0.94,0.85,0.001
353,0.3677997291088104,0.4856579601764679,0.95,0.83,0.001
354,0.3676334321498871,0.49421432614326477,0.96,0.81,0.001
355,0.37106677889823914,0.4974910616874695,0.96,0.8,0.001
356,0.36542704701423645,0.49888691306114197,0.96,0.81,0.001
357,0.3605600595474243,0.4980567991733551,0.96,0.8,0.001
358,0.36192962527275085,0.49553725123405457,0.96,0.81,0.001
359,0.3653360605239868,0.49314895272254944,0.96,0.81,0.001
360,0.36213552951812744,0.4884933829307556,0.96,0.84,0.001
361,0.3662833869457245,0.48504942655563354,0.95,0.84,0.001
362,0.3605281412601471,0.48605045676231384,0.96,0.85,0.001
363,0.36057335138320923,0.4886808693408966,0.96,0.85,0.001
364,0.3633189797401428,0.4870825707912445,0.96,0.85,0.001
365,0.3646267354488373,0.48315560817718506,0.95,0.85,0.001
366,0.35806700587272644,0.4845421612262726,0.96,0.83,0.001
367,0.35059109330177307,0.48614129424095154,0.97,0.82,0.001
368,0.35932809114456177,0.4879376292228699,0.96,0.83,0.001
369,0.3583347797393799,0.4894951581954956,0.96,0.83,0.001
370,0.35943642258644104,0.49022552371025085,0.96,0.83,0.001
371,0.3586387634277344,0.49139338731765747,0.96,0.82,0.001
372,0.3524680435657501,0.4929122030735016,0.97,0.82,0.001
373,0.36162030696868896,0.49215400218963623,0.96,0.82,0.001
374,0.35321372747421265,0.4888577163219452,0.97,0.82,0.001
375,0.35539913177490234,0.487670361995697,0.96,0.83,0.001
376,0.3594190180301666,0.4887748658657074,0.96,0.82,0.001
377,0.3516351580619812,0.4910748302936554,0.97,0.82,0.001
378,0.3550216555595398,0.49569347500801086,0.96,0.82,0.001
379,0.35531479120254517,0.5005909204483032,0.96,0.8,0.001
380,0.3578997552394867,0.5038233399391174,0.96,0.8,0.001
381,0.35267651081085205,0.5025182962417603,0.97,0.8,0.001
382,0.35448333621025085,0.5021633505821228,0.96,0.8,0.001
383,0.35028526186943054,0.49822235107421875,0.97,0.81,0.001
384,0.3523990213871002,0.4931357204914093,0.97,0.81,0.001
385,0.35368815064430237,0.48908424377441406,0.97,0.83,0.001
386,0.3491743206977844,0.4839475154876709,0.97,0.84,0.001
387,0.356202632188797,0.4808601140975952,0.96,0.84,0.001
388,0.3488781750202179,0.47775572538375854,0.97,0.85,0.001
389,0.3521377146244049,0.47520214319229126,0.97,0.85,0.001
390,0.3566529154777527,0.4751001000404358,0.96,0.85,0.001
391,0.3516630530357361,0.475501149892807,0.97,0.83,0.001
392,0.34835949540138245,0.47542303800582886,0.97,0.83,0.001
393,0.3484658896923065,0.47531062364578247,0.97,0.84,0.001
394,0.34790846705436707,0.475259393453598,0.97,0.84,0.001
395,0.3483894467353821,0.47550514340400696,0.97,0.84,0.001
396,0.3478754758834839,0.47543761134147644,0.97,0.84,0.001
397,0.34979668259620667,0.4763262867927551,0.97,0.84,0.001
398,0.35215073823928833,0.4792642891407013,0.96,0.84,0.001
399,0.34866809844970703,0.48155346512794495,0.97,0.84,0.001
400,0.3487798273563385,0.48099467158317566,0.97,0.84,0.001
401,0.3485246002674103,0.4794326722621918,0.97,0.85,0.001
402,0.3478289842605591,0.47741594910621643,0.97,0.85,0.001
403,0.3485485315322876,0.476248174905777,0.97,0.85,0.001
404,0.3479015827178955,0.4763866364955902,0.97,0.85,0.001
405,0.3475598990917206,0.47582584619522095,0.97,0.84,0.001
406,0.34735408425331116,0.4746067523956299,0.97,0.85,0.001
407,0.3507842719554901,0.4717930853366852,0.97,0.85,0.001
408,0.3495446443557739,0.46966052055358887,0.97,0.85,0.001
409,0.3501923382282257,0.4698570966720581,0.97,0.85,0.001
410,0.34740641713142395,0.4708843529224396,0.97,0.85,0.001
411,0.3467164635658264,0.4726998209953308,0.97,0.84,0.001
412,0.3489784300327301,0.47436609864234924,0.97,0.84,0.001
413,0.3492964506149292,0.47504374384880066,0.97,0.84,0.001
414,0.34769102931022644,0.47486963868141174,0.97,0.84,0.001
415,0.34789565205574036,0.47328922152519226,0.97,0.84,0.001
416,0.3473771810531616,0.47204485535621643,0.97,0.85,0.001
417,0.3515085279941559,0.4743817150592804,0.96,0.85,0.001
418,0.34776028990745544,0.4757528603076935,0.97,0.85,0.001
419,0.34950557351112366,0.47598230838775635,0.97,0.85,0.001
420,0.3466903269290924,0.47487136721611023,0.97,0.85,0.001
421,0.34669381380081177,0.4731197655200958,0.97,0.85,0.001
422,0.3474697768688202,0.4716123640537262,0.97,0.85,0.001
423,0.3487910330295563,0.47056663036346436,0.97,0.85,0.001
424,0.3480303883552551,0.47037461400032043,0.97,0.85,0.001
425,0.3460058569908142,0.4703099727630615,0.97,0.85,0.001
426,0.3481502830982208,0.47147971391677856,0.97,0.84,0.001
427,0.3477852940559387,0.4737754464149475,0.97,0.84,0.001
428,0.3476009666919708,0.4755321741104126,0.97,0.84,0.001
429,0.3499815762042999,0.47424784302711487,0.97,0.84,0.001
430,0.34905874729156494,0.4724186062812805,0.97,0.85,0.001
431,0.34551429748535156,0.4719705283641815,0.97,0.85,0.001
432,0.34715041518211365,0.47153034806251526,0.97,0.85,0.001
433,0.3477695882320404,0.4710163176059723,0.97,0.85,0.001
434,0.34720176458358765,0.4705744683742523,0.97,0.84,0.001
435,0.3464014530181885,0.4704138934612274,0.97,0.84,0.001
436,0.346792608499527,0.4698227345943451,0.97,0.84,0.001
437,0.3461788594722748,0.4688751697540283,0.97,0.84,0.001
438,0.3468095064163208,0.46864745020866394,0.97,0.84,0.001
439,0.3465794026851654,0.46880340576171875,0.97,0.84,0.001
440,0.34632712602615356,0.46878987550735474,0.97,0.84,0.001
441,0.3464098274707794,0.4691418409347534,0.97,0.84,0.001
442,0.3472481966018677,0.4699246287345886,0.97,0.84,0.001
443,0.34602850675582886,0.47164085507392883,0.97,0.84,0.001
444,0.3506356179714203,0.4742037057876587,0.96,0.84,0.001
445,0.3469657003879547,0.47533172369003296,0.97,0.84,0.001
446,0.3465596139431,0.47530025243759155,0.97,0.84,0.001
447,0.34631064534187317,0.47460293769836426,0.97,0.84,0.001
448,0.34678876399993896,0.4735812246799469,0.97,0.84,0.001
449,0.3468407392501831,0.472854346036911,0.97,0.85,0.001
450,0.34659409523010254,0.47160792350769043,0.97,0.85,0.001
451,0.3469408452510834,0.47032591700553894,0.97,0.85,0.001
452,0.3463182747364044,0.46906566619873047,0.97,0.85,0.001
453,0.3456893265247345,0.4683622121810913,0.97,0.85,0.001
454,0.34614285826683044,0.46781304478645325,0.97,0.85,0.001
455,0.3466414511203766,0.4678178131580353,0.97,0.85,0.001
456,0.34716537594795227,0.4671120345592499,0.97,0.85,0.001
457,0.34575408697128296,0.4668472409248352,0.97,0.84,0.001
458,0.34989723563194275,0.4703304171562195,0.97,0.83,0.001
459,0.3460012674331665,0.4724920988082886,0.97,0.84,0.001
460,0.34744584560394287,0.47343653440475464,0.97,0.84,0.001
461,0.34733331203460693,0.4728792607784271,0.97,0.84,0.001
462,0.34839290380477905,0.47220245003700256,0.97,0.84,0.001
463,0.3462921977043152,0.47146567702293396,0.97,0.85,0.001
464,0.3464480936527252,0.47126275300979614,0.97,0.85,0.001
465,0.3473559319972992,0.47162967920303345,0.97,0.85,0.001
466,0.3462686836719513,0.47142302989959717,0.97,0.85,0.001
467,0.34607791900634766,0.4712275564670563,0.97,0.85,0.001
468,0.34656521677970886,0.4706490635871887,0.97,0.85,0.001
469,0.3454539477825165,0.47000575065612793,0.97,0.85,0.001
470,0.34945523738861084,0.46903637051582336,0.97,0.84,0.001
471,0.3455055356025696,0.46752849221229553,0.97,0.84,0.001
472,0.3453702926635742,0.46714112162590027,0.97,0.84,0.001
473,0.3479917049407959,0.4687705636024475,0.97,0.84,0.001
474,0.34536638855934143,0.47038060426712036,0.97,0.84,0.001
475,0.3462514579296112,0.4714488983154297,0.97,0.84,0.001
476,0.3456864058971405,0.47226113080978394,0.97,0.84,0.001
477,0.3467877209186554,0.47332173585891724,0.97,0.84,0.001
478,0.34619686007499695,0.47316426038742065,0.97,0.84,0.001
479,0.34763702750205994,0.4712567627429962,0.97,0.84,0.001
480,0.3461882472038269,0.46905943751335144,0.97,0.85,0.001
481,0.3450603783130646,0.46758347749710083,0.97,0.85,0.001
482,0.34663498401641846,0.46628883481025696,0.97,0.85,0.001
483,0.3454858660697937,0.46521350741386414,0.97,0.85,0.001
484,0.34615638852119446,0.4650355279445648,0.97,0.84,0.001
485,0.34546270966529846,0.46500012278556824,0.97,0.84,0.001
486,0.34567904472351074,0.4650990962982178,0.97,0.84,0.001
487,0.3456810414791107,0.4652180075645447,0.97,0.84,0.001
488,0.3460525572299957,0.46546703577041626,0.97,0.84,0.001
489,0.34561827778816223,0.46596500277519226,0.97,0.84,0.001
490,0.3452392816543579,0.46660083532333374,0.97,0.84,0.001
491,0.34545955061912537,0.4668183922767639,0.97,0.84,0.001
492,0.3449617028236389,0.4673820436000824,0.97,0.84,0.001
493,0.3442229926586151,0.46763476729393005,0.97,0.84,0.001
494,0.3452145755290985,0.4677136540412903,0.97,0.84,0.001
495,0.3451937437057495,0.4679161012172699,0.97,0.84,0.001
496,0.34544607996940613,0.46802183985710144,0.97,0.84,0.001
497,0.3465127646923065,0.4684649705886841,0.97,0.84,0.001
498,0.34496867656707764,0.4688010513782501,0.97,0.84,0.001
499,0.3452543616294861,0.468534380197525,0.97,0.84,0.001
500,0.345147043466568,0.46814292669296265,0.97,0.84,0.001
501,0.34464728832244873,0.46779865026474,0.97,0.84,0.001
502,0.34551772475242615,0.46734485030174255,0.97,0.84,0.001
503,0.3451142907142639,0.4667610228061676,0.97,0.84,0.001
504,0.34555748105049133,0.46643325686454773,0.97,0.84,0.001
505,0.3446950614452362,0.4661250710487366,0.97,0.84,0.001
506,0.34572505950927734,0.46580639481544495,0.97,0.84,0.001
507,0.3455888628959656,0.4654797613620758,0.97,0.84,0.001
508,0.3453822731971741,0.4652028977870941,0.97,0.84,0.001
509,0.34397315979003906,0.46501868963241577,0.97,0.84,0.001
510,0.34498634934425354,0.4649620056152344,0.97,0.84,0.001
511,0.3456425964832306,0.46478310227394104,0.97,0.84,0.001
512,0.3449949026107788,0.46476122736930847,0.97,0.84,0.001
513,0.3447779417037964,0.4646948575973511,0.97,0.84,0.001
514,0.3447575271129608,0.46460869908332825,0.97,0.84,0.001
515,0.3448551297187805,0.46470189094543457,0.97,0.84,0.001
516,0.3451015055179596,0.46496468782424927,0.97,0.84,0.001
517,0.3448643386363983,0.4651722013950348,0.97,0.84,0.001
518,0.3444862365722656,0.4655338227748871,0.97,0.84,0.001
519,0.3456682562828064,0.46578410267829895,0.97,0.84,0.001
520,0.3448880910873413,0.46590590476989746,0.97,0.84,0.001
521,0.3453505039215088,0.46602100133895874,0.97,0.84,0.001
522,0.34576401114463806,0.4667171239852905,0.97,0.84,0.001
523,0.3454801142215729,0.46681714057922363,0.97,0.84,0.001
524,0.34531500935554504,0.46656283736228943,0.97,0.84,0.001
525,0.3452254831790924,0.46664151549339294,0.97,0.84,0.001
526,0.3445674479007721,0.4665489196777344,0.97,0.84,0.001
527,0.3447594940662384,0.4664287865161896,0.97,0.84,0.001
528,0.3447841703891754,0.4662686884403229,0.97,0.84,0.001
529,0.3441128432750702,0.4660395085811615,0.97,0.84,0.001
530,0.34487029910087585,0.4657023549079895,0.97,0.84,0.001
531,0.3443067669868469,0.46552574634552,0.97,0.84,0.001
532,0.3461758494377136,0.46539807319641113,0.97,0.84,0.001
533,0.3443787693977356,0.46518486738204956,0.97,0.84,0.001
534,0.34550708532333374,0.46520423889160156,0.97,0.84,0.001
535,0.3427390158176422,0.46494826674461365,0.97,0.84,0.001
536,0.3448847234249115,0.464924156665802,0.97,0.84,0.001
537,0.3396759331226349,0.46488815546035767,0.97,0.84,0.001
538,0.34496578574180603,0.4650530219078064,0.97,0.84,0.001
539,0.34513142704963684,0.4653093218803406,0.97,0.84,0.001
540,0.3438594937324524,0.46527859568595886,0.97,0.85,0.001
541,0.3462209701538086,0.46512091159820557,0.97,0.85,0.001
542,0.34547528624534607,0.46555110812187195,0.97,0.85,0.001
543,0.3453103005886078,0.4670475423336029,0.97,0.85,0.001
544,0.3413059711456299,0.4702134430408478,0.97,0.83,0.001
545,0.3441438376903534,0.47345706820487976,0.97,0.83,0.001
546,0.34497442841529846,0.47723057866096497,0.97,0.83,0.001
547,0.3392474055290222,0.4776044189929962,0.98,0.83,0.001
548,0.34389886260032654,0.47655776143074036,0.97,0.83,0.001
549,0.3431141674518585,0.4780137240886688,0.97,0.83,0.001
550,0.3457038104534149,0.47709500789642334,0.97,0.83,0.001
551,0.3400292992591858,0.4741238057613373,0.98,0.84,0.001
552,0.3392564654350281,0.4717664420604706,0.98,0.84,0.001
553,0.3384194076061249,0.4699266850948334,0.98,0.84,0.001
554,0.3452341854572296,0.47125670313835144,0.97,0.83,0.001
555,0.34198838472366333,0.474144846200943,0.97,0.83,0.001
556,0.34169280529022217,0.47792819142341614,0.97,0.83,0.001
557,0.34045684337615967,0.4752572774887085,0.98,0.83,0.001
558,0.34277987480163574,0.4695352613925934,0.97,0.84,0.001
559,0.33704566955566406,0.4630998969078064,0.98,0.85,0.001
560,0.3409005403518677,0.46026691794395447,0.98,0.86,0.001
561,0.3376381993293762,0.45857685804367065,0.98,0.86,0.001
562,0.35145533084869385,0.46084022521972656,0.96,0.85,0.001
563,0.3379341959953308,0.46546435356140137,0.98,0.84,0.001
564,0.34088051319122314,0.46963176131248474,0.98,0.83,0.001
565,0.344216525554657,0.47741764783859253,0.97,0.81,0.001
566,0.3394835591316223,0.4743739366531372,0.98,0.81,0.001
567,0.34245482087135315,0.47026169300079346,0.98,0.85,0.001
568,0.3381839096546173,0.46630042791366577,0.98,0.85,0.001
569,0.3391094207763672,0.46319374442100525,0.98,0.85,0.001
570,0.34338706731796265,0.46345290541648865,0.97,0.85,0.001
571,0.3373146951198578,0.4628711938858032,0.98,0.85,0.001
572,0.3373144865036011,0.4624643623828888,0.98,0.85,0.001
573,0.3378792107105255,0.46333473920822144,0.98,0.84,0.001
574,0.33967286348342896,0.4671488106250763,0.98,0.85,0.001
575,0.33683350682258606,0.46975862979888916,0.98,0.82,0.001
576,0.3369830846786499,0.4700850248336792,0.98,0.83,0.001
577,0.33593815565109253,0.4687989354133606,0.98,0.83,0.001
578,0.3377307057380676,0.46708565950393677,0.98,0.85,0.001
579,0.34105736017227173,0.46820834279060364,0.98,0.85,0.001
580,0.3366087079048157,0.4686056971549988,0.98,0.85,0.001
581,0.3382866680622101,0.46743693947792053,0.98,0.85,0.001
582,0.33788928389549255,0.4676758646965027,0.98,0.84,0.001
583,0.3367752730846405,0.46815037727355957,0.98,0.84,0.001
584,0.33620885014533997,0.4660695791244507,0.98,0.84,0.001
585,0.337698757648468,0.46615099906921387,0.98,0.83,0.001
586,0.3375453054904938,0.4666486978530884,0.98,0.83,0.001
587,0.33292335271835327,0.46602022647857666,0.98,0.84,0.001
588,0.33696842193603516,0.46833375096321106,0.98,0.84,0.001
589,0.33241602778434753,0.47283995151519775,0.98,0.83,0.001
590,0.33631694316864014,0.476243257522583,0.98,0.83,0.001
591,0.3319808840751648,0.47657760977745056,0.99,0.83,0.001
592,0.33633872866630554,0.47239819169044495,0.98,0.83,0.001
593,0.3320820927619934,0.4706347584724426,0.99,0.84,0.001
594,0.329018235206604,0.4662248194217682,0.99,0.84,0.001
595,0.3321712017059326,0.46285274624824524,0.99,0.85,0.001
596,0.33164483308792114,0.46109744906425476,0.99,0.84,0.001
597,0.3293823003768921,0.46208199858665466,0.99,0.84,0.001
598,0.3296416401863098,0.4623164236545563,0.99,0.83,0.001
599,0.32999229431152344,0.4606908857822418,0.99,0.83,0.001
600,0.32899466156959534,0.45744428038597107,0.99,0.85,0.001
601,0.327805757522583,0.457746684551239,0.99,0.85,0.001
602,0.32872363924980164,0.458251416683197,0.99,0.86,0.001
603,0.3274093270301819,0.4590145945549011,0.99,0.85,0.001
604,0.3336978256702423,0.46830859780311584,0.98,0.83,0.001
605,0.32676997780799866,0.4738087058067322,0.99,0.82,0.001
606,0.3288109600543976,0.48256969451904297,0.99,0.79,0.001
607,0.32907530665397644,0.4873734414577484,0.99,0.79,0.001
608,0.32748785614967346,0.48604390025138855,0.99,0.8,0.001
609,0.32787513732910156,0.4773823618888855,0.99,0.81,0.001
610,0.3278017044067383,0.4682177007198334,0.99,0.84,0.001
611,0.32747334241867065,0.4634891152381897,0.99,0.84,0.001
612,0.32661187648773193,0.4574296176433563,0.99,0.85,0.001
613,0.3277646005153656,0.45257148146629333,0.99,0.86,0.001
614,0.3273853063583374,0.4522407650947571,0.99,0.87,0.001
615,0.3274616599082947,0.4514210820198059,0.99,0.86,0.001
616,0.32738903164863586,0.44871148467063904,0.99,0.88,0.001
617,0.32609227299690247,0.4473859369754791,0.99,0.87,0.001
618,0.3272113502025604,0.4549228250980377,0.99,0.85,0.001
619,0.3268110752105713,0.4605494737625122,0.99,0.85,0.001
620,0.3278751075267792,0.46077221632003784,0.99,0.85,0.001
621,0.3258604407310486,0.4579879641532898,0.99,0.85,0.001
622,0.32692429423332214,0.45761623978614807,0.99,0.86,0.001
623,0.3260239362716675,0.4574376344680786,0.99,0.86,0.001
624,0.3265712261199951,0.4547592103481293,0.99,0.86,0.001
625,0.3261447548866272,0.4519428610801697,0.99,0.85,0.001
626,0.32564759254455566,0.4504684507846832,0.99,0.85,0.001
627,0.3256474733352661,0.45013663172721863,0.99,0.87,0.001
628,0.32508647441864014,0.4490121901035309,0.99,0.87,0.001
629,0.3252682387828827,0.4484124779701233,0.99,0.87,0.001
630,0.32546859979629517,0.4479357600212097,0.99,0.87,0.001
631,0.3289048373699188,0.4520242214202881,0.99,0.86,0.001
632,0.3254697918891907,0.45452606678009033,0.99,0.85,0.001
633,0.32583358883857727,0.4555000960826874,0.99,0.85,0.001
634,0.3259701430797577,0.45709022879600525,0.99,0.85,0.001
635,0.32484978437423706,0.45890167355537415,0.99,0.85,0.001
636,0.3253304958343506,0.46211281418800354,0.99,0.86,0.001
637,0.32666754722595215,0.46670234203338623,0.99,0.84,0.001
638,0.32587355375289917,0.46910709142684937,0.99,0.84,0.001
639,0.32545390725135803,0.46848824620246887,0.99,0.84,0.001
640,0.3259027600288391,0.4645775258541107,0.99,0.85,0.001
641,0.3254465162754059,0.46037811040878296,0.99,0.85,0.001
642,0.32621872425079346,0.45699867606163025,0.99,0.86,0.001
643,0.32496121525764465,0.4530719816684723,0.99,0.86,0.001
644,0.3253161609172821,0.4506743252277374,0.99,0.86,0.001
645,0.3254726529121399,0.4507693350315094,0.99,0.87,0.001
646,0.3260492980480194,0.4506508708000183,0.99,0.86,0.001
647,0.3257209062576294,0.4504489004611969,0.99,0.86,0.001
648,0.3263765275478363,0.45225441455841064,0.99,0.86,0.001
649,0.3248597979545593,0.4507288634777069,0.99,0.86,0.001
650,0.3252950608730316,0.450367271900177,0.99,0.86,0.001
651,0.3259143829345703,0.455471396446228,0.99,0.85,0.001
652,0.3255114257335663,0.46248844265937805,0.99,0.86,0.001
653,0.32520243525505066,0.4673652946949005,0.99,0.85,0.001
654,0.3257623612880707,0.46802833676338196,0.99,0.84,0.001
655,0.32521092891693115,0.46658486127853394,0.99,0.85,0.001
656,0.3250150680541992,0.4630924463272095,0.99,0.85,0.001
657,0.3252713084220886,0.4609491229057312,0.99,0.85,0.001
658,0.32514381408691406,0.4589751958847046,0.99,0.85,0.001
659,0.3250775933265686,0.4573167562484741,0.99,0.86,0.001
660,0.32541748881340027,0.4559992849826813,0.99,0.85,0.001
661,0.32494622468948364,0.4542486071586609,0.99,0.85,0.001
662,0.3249739706516266,0.45278021693229675,0.99,0.85,0.001
663,0.32483533024787903,0.4501550793647766,0.99,0.88,0.001
664,0.32518771290779114,0.44847118854522705,0.99,0.87,0.001
665,0.3243647515773773,0.44779521226882935,0.99,0.87,0.001
666,0.3246072828769684,0.44833269715309143,0.99,0.86,0.001
667,0.32505086064338684,0.4505954682826996,0.99,0.86,0.001
668,0.32493263483047485,0.4507669508457184,0.99,0.86,0.001
669,0.32462257146835327,0.4500769078731537,0.99,0.87,0.001
670,0.32445967197418213,0.450601726770401,0.99,0.87,0.001
671,0.32494738698005676,0.4508437216281891,0.99,0.86,0.001
672,0.3248104155063629,0.4507843255996704,0.99,0.86,0.001
673,0.324691504240036,0.45132431387901306,0.99,0.86,0.001
674,0.3244513273239136,0.452027827501297,0.99,0.86,0.001
675,0.3250911831855774,0.45348045229911804,0.99,0.86,0.001
676,0.32476988434791565,0.45439279079437256,0.99,0.86,0.001
677,0.324665367603302,0.4548063576221466,0.99,0.86,0.001
678,0.3244594931602478,0.45468831062316895,0.99,0.86,0.001
679,0.32482436299324036,0.4539640545845032,0.99,0.86,0.001
680,0.32486194372177124,0.4533119201660156,0.99,0.85,0.001
681,0.3249938189983368,0.4535831809043884,0.99,0.85,0.001
682,0.32456040382385254,0.4528847634792328,0.99,0.85,0.001
683,0.32438400387763977,0.45185384154319763,0.99,0.86,0.001
684,0.32474052906036377,0.45139628648757935,0.99,0.86,0.001
685,0.3243165910243988,0.4509025812149048,0.99,0.86,0.001
686,0.3254776895046234,0.4526309072971344,0.99,0.86,0.001
687,0.32484737038612366,0.4540233314037323,0.99,0.85,0.001
688,0.324796587228775,0.4545607268810272,0.99,0.86,0.001
689,0.32501107454299927,0.45416057109832764,0.99,0.86,0.001
690,0.3244670629501343,0.45428183674812317,0.99,0.86,0.001
691,0.32452547550201416,0.4546142816543579,0.99,0.86,0.001
692,0.32444876432418823,0.4547906219959259,0.99,0.86,0.001
693,0.3248269259929657,0.4551601707935333,0.99,0.86,0.001
694,0.3246566653251648,0.45527175068855286,0.99,0.86,0.001
695,0.3245569169521332,0.4538947343826294,0.99,0.86,0.001
696,0.32496532797813416,0.4525715708732605,0.99,0.85,0.001
697,0.3245812654495239,0.45065581798553467,0.99,0.86,0.001
698,0.3241426348686218,0.4482583701610565,0.99,0.87,0.001
699,0.32415854930877686,0.44631096720695496,0.99,0.87,0.001
700,0.32416343688964844,0.4455898404121399,0.99,0.87,0.001
701,0.32495081424713135,0.44517284631729126,0.99,0.87,0.001
702,0.32398322224617004,0.44521206617355347,0.99,0.87,0.001
703,0.3249092996120453,0.4450334310531616,0.99,0.87,0.001
704,0.32401278614997864,0.4457576274871826,0.99,0.87,0.001
705,0.32426607608795166,0.44583606719970703,0.99,0.87,0.001
706,0.32419848442077637,0.4455450177192688,0.99,0.87,0.001
707,0.32532963156700134,0.44751033186912537,0.99,0.87,0.001
708,0.3248564600944519,0.4497692883014679,0.99,0.86,0.001
709,0.32356885075569153,0.4509800970554352,0.99,0.87,0.001
710,0.3252039849758148,0.4548579752445221,0.99,0.85,0.001
711,0.32458260655403137,0.4583039879798889,0.99,0.85,0.001
712,0.3235849440097809,0.4588189423084259,0.99,0.86,0.001
713,0.3242467939853668,0.46007007360458374,0.99,0.85,0.001
714,0.3252413272857666,0.4609696865081787,0.99,0.85,0.001
715,0.3257257342338562,0.45936301350593567,0.99,0.84,0.001
716,0.32470250129699707,0.4578996002674103,0.99,0.85,0.001
717,0.32474109530448914,0.4573153555393219,0.99,0.85,0.001
718,0.3250057101249695,0.4582967758178711,0.99,0.85,0.001
719,0.3245363235473633,0.4572352170944214,0.99,0.85,0.001
720,0.3242052495479584,0.4546721279621124,0.99,0.86,0.001
721,0.3244747817516327,0.45228731632232666,0.99,0.86,0.001
722,0.3240435719490051,0.45021289587020874,0.99,0.87,0.001
723,0.3245500922203064,0.4486437737941742,0.99,0.87,0.001
724,0.3244292438030243,0.4467986226081848,0.99,0.87,0.001
725,0.32442137598991394,0.4449504017829895,0.99,0.87,0.001
726,0.324199914932251,0.44512298703193665,0.99,0.87,0.001
727,0.32493701577186584,0.448184996843338,0.99,0.86,0.001
728,0.32429444789886475,0.4494345784187317,0.99,0.86,0.001
729,0.32373902201652527,0.44967350363731384,0.99,0.86,0.001
730,0.324312299489975,0.44979342818260193,0.99,0.86,0.001
731,0.32436081767082214,0.4495764970779419,0.99,0.86,0.001
732,0.32466429471969604,0.4503406286239624,0.99,0.86,0.001
733,0.32449015974998474,0.45209866762161255,0.99,0.87,0.001
734,0.3226894736289978,0.4547175168991089,0.99,0.86,0.001
735,0.32430434226989746,0.45616263151168823,0.99,0.85,0.001
736,0.3240734934806824,0.4560982584953308,0.99,0.85,0.001
737,0.3226736783981323,0.45650631189346313,0.99,0.86,0.001
738,0.32465851306915283,0.4559808671474457,0.99,0.85,0.001
739,0.3238356113433838,0.45498839020729065,0.99,0.85,0.001
740,0.3244554400444031,0.45402005314826965,0.99,0.85,0.001
741,0.3243735134601593,0.45303890109062195,0.99,0.85,0.001
742,0.32411661744117737,0.4516376554965973,0.99,0.85,0.001
743,0.3217705488204956,0.4536163806915283,0.99,0.86,0.001
744,0.32394835352897644,0.45663461089134216,0.99,0.87,0.001
745,0.3244081437587738,0.45853686332702637,0.99,0.87,0.001
746,0.32363754510879517,0.46225082874298096,0.99,0.84,0.001
747,0.325885534286499,0.46251732110977173,0.99,0.84,0.001
748,0.322219580411911,0.4638500511646271,0.99,0.84,0.001
749,0.31858447194099426,0.4694759249687195,1.0,0.85,0.001
750,0.3259783983230591,0.46275556087493896,0.99,0.86,0.001
751,0.3252597451210022,0.45837604999542236,0.99,0.85,0.001
752,0.32451358437538147,0.45925721526145935,0.99,0.83,0.001
753,0.32459208369255066,0.45719191431999207,0.99,0.83,0.001
754,0.3237711191177368,0.4561285376548767,0.99,0.87,0.001
755,0.31899574398994446,0.47087422013282776,1.0,0.83,0.001
756,0.3217451572418213,0.4640998840332031,1.0,0.85,0.001
757,0.3189117908477783,0.4581925868988037,1.0,0.84,0.001
758,0.3172409236431122,0.4563259482383728,1.0,0.84,0.001
759,0.32426831126213074,0.4508741497993469,0.99,0.84,0.001
760,0.31778645515441895,0.446646124124527,1.0,0.87,0.001
761,0.3180106282234192,0.4457707107067108,1.0,0.88,0.001
762,0.3199183940887451,0.44410523772239685,0.99,0.87,0.001
763,0.32374513149261475,0.45100483298301697,0.99,0.87,0.001
764,0.31906917691230774,0.4614104926586151,1.0,0.85,0.001
765,0.3190736472606659,0.4524211585521698,1.0,0.87,0.001
766,0.3178466558456421,0.45919501781463623,1.0,0.83,0.001
767,0.3176235854625702,0.46426182985305786,1.0,0.85,0.001
768,0.318848192691803,0.46196940541267395,1.0,0.85,0.001
769,0.3165275454521179,0.4560163915157318,1.0,0.84,0.001
770,0.3176387846469879,0.4531624913215637,1.0,0.85,0.001
771,0.31967630982398987,0.4726782739162445,1.0,0.83,0.001
772,0.3186318874359131,0.4921751916408539,1.0,0.81,0.001
773,0.31697291135787964,0.48870840668678284,1.0,0.81,0.001
774,0.3216266334056854,0.4492628872394562,1.0,0.86,0.001
775,0.31585195660591125,0.4801153242588043,1.0,0.82,0.001
776,0.3252462148666382,0.509906530380249,0.99,0.8,0.001
777,0.3387162387371063,0.4844232201576233,0.97,0.83,0.001
778,0.3281427323818207,0.4260157346725464,0.99,0.89,0.001
779,0.31781283020973206,0.44975265860557556,1.0,0.85,0.001
780,0.32290828227996826,0.47178032994270325,0.99,0.83,0.001
781,0.3258695602416992,0.4822324514389038,0.99,0.82,0.001
782,0.3336678743362427,0.4587014317512512,0.99,0.85,0.001
783,0.3270043134689331,0.4831688404083252,0.99,0.83,0.001
784,0.3360157310962677,0.4762987792491913,0.99,0.84,0.001
785,0.3241911232471466,0.463567852973938,0.99,0.84,0.001
786,0.32130154967308044,0.4543413519859314,0.99,0.86,0.001
787,0.32500168681144714,0.44949302077293396,0.99,0.87,0.001
788,0.33357179164886475,0.47226575016975403,0.99,0.82,0.001
789,0.32088202238082886,0.47076115012168884,1.0,0.84,0.001
790,0.32198578119277954,0.4679996967315674,1.0,0.83,0.001
791,0.32402464747428894,0.46138232946395874,0.99,0.85,0.001
792,0.31846117973327637,0.46717143058776855,1.0,0.83,0.001
793,0.321437805891037,0.4666794240474701,1.0,0.84,0.001
794,0.31736934185028076,0.4599486291408539,1.0,0.83,0.001
795,0.32266390323638916,0.45341452956199646,1.0,0.84,0.001
796,0.32177460193634033,0.4440990388393402,1.0,0.87,0.001
797,0.3172239065170288,0.44129645824432373,1.0,0.88,0.001
798,0.3168007433414459,0.4482487142086029,1.0,0.87,0.001
799,0.31973209977149963,0.452035129070282,1.0,0.83,0.001
800,0.31809255480766296,0.4497978985309601,1.0,0.84,0.001
801,0.31602346897125244,0.4443179666996002,1.0,0.86,0.001
802,0.31783559918403625,0.4409557282924652,1.0,0.87,0.001
803,0.32214516401290894,0.46436986327171326,0.99,0.83,0.001
804,0.3176933526992798,0.4644626975059509,1.0,0.84,0.001
805,0.3152518570423126,0.4590178430080414,1.0,0.84,0.001
806,0.3177746534347534,0.45597678422927856,1.0,0.85,0.001
807,0.3173314034938812,0.4602107107639313,1.0,0.84,0.001
808,0.31570175290107727,0.46190398931503296,1.0,0.83,0.001
809,0.3168109953403473,0.45303401350975037,1.0,0.85,0.001
810,0.3154846429824829,0.45165711641311646,1.0,0.86,0.001
811,0.31636616587638855,0.45565730333328247,1.0,0.86,0.001
812,0.31588995456695557,0.454685777425766,1.0,0.86,0.001
813,0.31552666425704956,0.4489811360836029,1.0,0.87,0.001
814,0.3154740035533905,0.44525811076164246,1.0,0.85,0.001
815,0.3161752223968506,0.4470685124397278,1.0,0.85,0.001
816,0.31518039107322693,0.4533136487007141,1.0,0.85,0.001
817,0.31457558274269104,0.4558855891227722,1.0,0.86,0.001
818,0.31649020314216614,0.45720940828323364,1.0,0.85,0.001
819,0.3143826723098755,0.4568321108818054,1.0,0.84,0.001
820,0.3141495883464813,0.4563928544521332,1.0,0.84,0.001
821,0.3147810995578766,0.4554764926433563,1.0,0.85,0.001
822,0.31467583775520325,0.4545169472694397,1.0,0.85,0.001
823,0.31738147139549255,0.45260506868362427,1.0,0.86,0.001
824,0.315195232629776,0.45247557759284973,1.0,0.86,0.001
825,0.3165091276168823,0.4537687599658966,1.0,0.86,0.001
826,0.3163750469684601,0.45479437708854675,1.0,0.84,0.001
827,0.3152318596839905,0.45257747173309326,1.0,0.85,0.001
828,0.31459319591522217,0.45097023248672485,1.0,0.85,0.001
829,0.3150572180747986,0.45141148567199707,1.0,0.85,0.001
830,0.31741786003112793,0.4586222171783447,1.0,0.84,0.001
831,0.3147267699241638,0.45989158749580383,1.0,0.84,0.001
832,0.31463587284088135,0.4596182703971863,1.0,0.85,0.001
833,0.3146497905254364,0.4598030149936676,1.0,0.85,0.001
834,0.3158833980560303,0.4599180221557617,1.0,0.85,0.001
835,0.31550127267837524,0.4594898223876953,1.0,0.85,0.001
836,0.3143157660961151,0.4583655893802643,1.0,0.85,0.001
837,0.31428366899490356,0.45576807856559753,1.0,0.86,0.001
838,0.31431910395622253,0.45328235626220703,1.0,0.86,0.001
839,0.31415078043937683,0.4506691098213196,1.0,0.86,0.001
840,0.3147067129611969,0.4492092430591583,1.0,0.86,0.001
841,0.3148099482059479,0.44818365573883057,1.0,0.86,0.001
842,0.3143789768218994,0.4471261501312256,1.0,0.86,0.001
843,0.31539368629455566,0.44651785492897034,1.0,0.86,0.001
844,0.3140909969806671,0.44550251960754395,1.0,0.86,0.001
845,0.3146524429321289,0.4449993968009949,1.0,0.86,0.001
846,0.3150016963481903,0.4440489113330841,1.0,0.87,0.001
847,0.31413033604621887,0.4428166151046753,1.0,0.87,0.001
848,0.31428730487823486,0.44184428453445435,1.0,0.87,0.001
849,0.3146485984325409,0.44212833046913147,1.0,0.87,0.001
850,0.3142206370830536,0.44324085116386414,1.0,0.86,0.001
851,0.31499311327934265,0.44599658250808716,1.0,0.86,0.001
852,0.31414544582366943,0.4473619759082794,1.0,0.86,0.001
853,0.3140765428543091,0.4476924240589142,1.0,0.86,0.001
854,0.31450676918029785,0.4472222924232483,1.0,0.86,0.001
855,0.31422197818756104,0.44652459025382996,1.0,0.86,0.001
856,0.31422558426856995,0.44612637162208557,1.0,0.86,0.001
857,0.3147304654121399,0.44480061531066895,1.0,0.86,0.001
858,0.31484508514404297,0.4433743953704834,1.0,0.87,0.001
859,0.31419768929481506,0.4413889944553375,1.0,0.87,0.001
860,0.31460684537887573,0.44112300872802734,1.0,0.88,0.001
861,0.31411945819854736,0.442188560962677,1.0,0.87,0.001
862,0.3141208291053772,0.4443160593509674,1.0,0.86,0.001
863,0.31415045261383057,0.44722557067871094,1.0,0.86,0.001
864,0.3141188621520996,0.4503426253795624,1.0,0.85,0.001
865,0.31401264667510986,0.45242518186569214,1.0,0.85,0.001
866,0.31397783756256104,0.453192800283432,1.0,0.85,0.001
867,0.3140149414539337,0.4537630081176758,1.0,0.85,0.001
868,0.31446677446365356,0.45345279574394226,1.0,0.85,0.001
869,0.3141385018825531,0.45321232080459595,1.0,0.85,0.001
870,0.31405317783355713,0.4522334933280945,1.0,0.85,0.001
871,0.31409981846809387,0.4510631263256073,1.0,0.85,0.001
872,0.31393566727638245,0.4493013620376587,1.0,0.86,0.001
873,0.3140678107738495,0.4469277858734131,1.0,0.86,0.001
874,0.31385332345962524,0.4441128969192505,1.0,0.86,0.001
875,0.3139556050300598,0.4419780671596527,1.0,0.87,0.001
876,0.31396710872650146,0.4405227303504944,1.0,0.87,0.001
877,0.31426289677619934,0.43985697627067566,1.0,0.87,0.001
878,0.3139411509037018,0.4400857090950012,1.0,0.87,0.001
879,0.313938707113266,0.4410281479358673,1.0,0.87,0.001
880,0.3140546977519989,0.44232121109962463,1.0,0.86,0.001
881,0.31392133235931396,0.44377902150154114,1.0,0.86,0.001
882,0.3139316141605377,0.44501540064811707,1.0,0.86,0.001
883,0.31381845474243164,0.44612669944763184,1.0,0.86,0.001
884,0.31397154927253723,0.44721725583076477,1.0,0.86,0.001
885,0.31391993165016174,0.44811561703681946,1.0,0.86,0.001
886,0.31387948989868164,0.448655366897583,1.0,0.86,0.001
887,0.31419962644577026,0.44890934228897095,1.0,0.86,0.001
888,0.31407082080841064,0.4481864273548126,1.0,0.85,0.001
889,0.3137296140193939,0.4470765292644501,1.0,0.85,0.001
890,0.3137573301792145,0.44570958614349365,1.0,0.86,0.001
891,0.3137427270412445,0.44470760226249695,1.0,0.87,0.001
892,0.31406301259994507,0.4431495666503906,1.0,0.87,0.001
893,0.3139134347438812,0.4429698884487152,1.0,0.87,0.001
894,0.3139152526855469,0.44289761781692505,1.0,0.87,0.001
895,0.3138180077075958,0.44277191162109375,1.0,0.86,0.001
896,0.3139359951019287,0.4435189962387085,1.0,0.86,0.001
897,0.3143852949142456,0.4430621862411499,1.0,0.86,0.001
898,0.3139798045158386,0.44414424896240234,1.0,0.86,0.001
899,0.3139868676662445,0.4453115165233612,1.0,0.86,0.001
900,0.3138065040111542,0.4467698335647583,1.0,0.86,0.001
901,0.3138887584209442,0.4481423497200012,1.0,0.86,0.001
902,0.3138584494590759,0.4487093985080719,1.0,0.86,0.001
903,0.3140162527561188,0.4488076865673065,1.0,0.86,0.001
904,0.3139583468437195,0.44924286007881165,1.0,0.86,0.001
905,0.3137500286102295,0.4494236707687378,1.0,0.86,0.001
906,0.31399205327033997,0.4488650858402252,1.0,0.86,0.001
907,0.3140769600868225,0.4479149281978607,1.0,0.86,0.001
908,0.31390640139579773,0.44696947932243347,1.0,0.86,0.001
909,0.31387990713119507,0.4464036822319031,1.0,0.86,0.001
910,0.31396016478538513,0.4450693130493164,1.0,0.86,0.001
911,0.3137098550796509,0.44396987557411194,1.0,0.86,0.001
912,0.31373682618141174,0.4431508779525757,1.0,0.87,0.001
913,0.3139466643333435,0.44337940216064453,1.0,0.87,0.001
914,0.31376543641090393,0.44398030638694763,1.0,0.86,0.001
915,0.3136916756629944,0.44487637281417847,1.0,0.86,0.001
916,0.31364792585372925,0.4460430443286896,1.0,0.86,0.001
917,0.3138233423233032,0.44725754857063293,1.0,0.86,0.001
918,0.31387606263160706,0.4478888213634491,1.0,0.86,0.001
919,0.313732385635376,0.4487399756908417,1.0,0.86,0.001
920,0.3161677420139313,0.4468580484390259,1.0,0.86,0.001
921,0.3136310279369354,0.44521546363830566,1.0,0.87,0.001
922,0.3139396905899048,0.44302135705947876,1.0,0.86,0.001
923,0.31417810916900635,0.44174450635910034,1.0,0.87,0.001
924,0.3145867586135864,0.4437825381755829,1.0,0.88,0.001
925,0.3144848942756653,0.4488202929496765,1.0,0.86,0.001
926,0.31449007987976074,0.45524969696998596,1.0,0.85,0.001
927,0.3143150210380554,0.46007591485977173,1.0,0.84,0.001
928,0.31439587473869324,0.4616667926311493,1.0,0.84,0.001
929,0.314328134059906,0.460709810256958,1.0,0.84,0.001
930,0.3139304518699646,0.45897090435028076,1.0,0.84,0.001
931,0.3138740658760071,0.45675599575042725,1.0,0.85,0.001
932,0.31440111994743347,0.45479145646095276,1.0,0.85,0.001
933,0.3139455318450928,0.45288941264152527,1.0,0.86,0.001
934,0.3139035105705261,0.4514751732349396,1.0,0.86,0.001
935,0.3140557110309601,0.4498122036457062,1.0,0.86,0.001
936,0.31394678354263306,0.44832363724708557,1.0,0.86,0.001
937,0.3138088881969452,0.4477999806404114,1.0,0.86,0.001
938,0.31384241580963135,0.4475770592689514,1.0,0.86,0.001
939,0.31400302052497864,0.4474434554576874,1.0,0.86,0.001
940,0.31404969096183777,0.4475768208503723,1.0,0.86,0.001
941,0.3137516677379608,0.4478873014450073,1.0,0.86,0.001
942,0.31429797410964966,0.449616014957428,1.0,0.86,0.001
943,0.3137720227241516,0.4506877064704895,1.0,0.86,0.001
944,0.31378695368766785,0.4514792263507843,1.0,0.86,0.001
945,0.313762903213501,0.4519742727279663,1.0,0.86,0.001
946,0.31368914246559143,0.45187729597091675,1.0,0.86,0.001
947,0.31388619542121887,0.45188048481941223,1.0,0.86,0.001
948,0.31408581137657166,0.45177024602890015,1.0,0.86,0.001
949,0.3138761818408966,0.45175525546073914,1.0,0.85,0.001
950,0.31398409605026245,0.4520358741283417,1.0,0.85,0.001
951,0.3136531114578247,0.451453298330307,1.0,0.85,0.001
952,0.3139503598213196,0.44947123527526855,1.0,0.86,0.001
953,0.3137686848640442,0.44799408316612244,1.0,0.86,0.001
954,0.3137224614620209,0.44633275270462036,1.0,0.86,0.001
955,0.3136938214302063,0.4448802173137665,1.0,0.86,0.001
956,0.313902884721756,0.4435431659221649,1.0,0.86,0.001
957,0.31413745880126953,0.44435128569602966,1.0,0.86,0.001
958,0.31373053789138794,0.4460429251194,1.0,0.86,0.001
959,0.31372082233428955,0.4476465582847595,1.0,0.86,0.001
960,0.3137224018573761,0.44901224970817566,1.0,0.86,0.001
961,0.31552574038505554,0.45246440172195435,1.0,0.85,0.001
962,0.31401729583740234,0.45289716124534607,1.0,0.85,0.001
963,0.3136957883834839,0.45364707708358765,1.0,0.85,0.001
964,0.3140121102333069,0.4553367495536804,1.0,0.85,0.001
965,0.3138393461704254,0.45603877305984497,1.0,0.85,0.001
966,0.3139207363128662,0.45551976561546326,1.0,0.85,0.001
967,0.3139362335205078,0.4543648660182953,1.0,0.85,0.001
968,0.3138510584831238,0.45335909724235535,1.0,0.85,0.001
969,0.3139573037624359,0.4526253938674927,1.0,0.85,0.001
970,0.31406983733177185,0.45233070850372314,1.0,0.85,0.001
971,0.31389033794403076,0.4521520733833313,1.0,0.85,0.001
972,0.3137541711330414,0.4521215856075287,1.0,0.85,0.001
973,0.31388527154922485,0.45225420594215393,1.0,0.85,0.001
974,0.3137490749359131,0.45205169916152954,1.0,0.85,0.001
975,0.3137874901294708,0.45209968090057373,1.0,0.85,0.001
976,0.3136764466762543,0.451680988073349,1.0,0.85,0.001
977,0.3137560784816742,0.4512929916381836,1.0,0.85,0.001
978,0.3137640655040741,0.4504024088382721,1.0,0.85,0.001
979,0.3140408992767334,0.4493548572063446,1.0,0.85,0.001
980,0.31398898363113403,0.4481642246246338,1.0,0.85,0.001
981,0.31396543979644775,0.4470517635345459,1.0,0.86,0.001
982,0.3137073516845703,0.4466533958911896,1.0,0.86,0.001
983,0.3138066232204437,0.44726893305778503,1.0,0.86,0.001
984,0.3136800527572632,0.44773349165916443,1.0,0.86,0.001
985,0.3137769401073456,0.44831666350364685,1.0,0.86,0.001
986,0.3137470781803131,0.4485586881637573,1.0,0.86,0.001
987,0.3137371838092804,0.4490170180797577,1.0,0.86,0.001
988,0.31388115882873535,0.4488002359867096,1.0,0.86,0.001
989,0.31373462080955505,0.44912779331207275,1.0,0.86,0.001
990,0.31410276889801025,0.447811484336853,1.0,0.86,0.001
991,0.31378239393234253,0.44618991017341614,1.0,0.86,0.001
992,0.313973605632782,0.44441699981689453,1.0,0.86,0.001
993,0.3139688968658447,0.44398045539855957,1.0,0.86,0.001
994,0.3137317895889282,0.4446984529495239,1.0,0.86,0.001
995,0.31374990940093994,0.44562003016471863,1.0,0.86,0.001
996,0.3143199384212494,0.4484640955924988,1.0,0.85,0.001
997,0.314501017332077,0.45415663719177246,1.0,0.85,0.001
998,0.3138401508331299,0.4567961096763611,1.0,0.85,0.001
999,0.31366196274757385,0.4575600028038025,1.0,0.85,0.001
1000,0.3137500584125519,0.4572458267211914,1.0,0.85,0.001
1001,0.3140559792518616,0.45601433515548706,1.0,0.85,0.001
1002,0.3138415813446045,0.45493125915527344,1.0,0.86,0.001
1003,0.31406643986701965,0.45336079597473145,1.0,0.86,0.001
1004,0.31373727321624756,0.4519244134426117,1.0,0.86,0.001
1005,0.31383225321769714,0.45013314485549927,1.0,0.86,0.001
1006,0.3136841356754303,0.44823771715164185,1.0,0.86,0.001
1007,0.3137250542640686,0.44656410813331604,1.0,0.86,0.001
1008,0.3136630952358246,0.44521358609199524,1.0,0.86,0.001
1009,0.3138176202774048,0.444616436958313,1.0,0.86,0.001
1010,0.31369513273239136,0.4445513188838959,1.0,0.86,0.001
1011,0.3137325048446655,0.4452968239784241,1.0,0.86,0.001
1012,0.3138551712036133,0.4471166729927063,1.0,0.86,0.001
1013,0.3138713538646698,0.449870765209198,1.0,0.85,0.001
1014,0.3136783242225647,0.45144158601760864,1.0,0.85,0.001
1015,0.31366637349128723,0.45219528675079346,1.0,0.85,0.001
1016,0.31372228264808655,0.4522174000740051,1.0,0.85,0.001
1017,0.3137730062007904,0.4518454074859619,1.0,0.86,0.0007937005259840996
1018,0.31367227435112,0.451026052236557,1.0,0.86,0.0007937005259840996
1019,0.3137022852897644,0.450736403465271,1.0,0.86,0.0007937005259840996
1020,0.3136574923992157,0.4502498507499695,1.0,0.86,0.0007937005259840996
1021,0.3137572407722473,0.4496269226074219,1.0,0.86,0.0007937005259840996
1022,0.3135957419872284,0.44902506470680237,1.0,0.86,0.0007937005259840996
1023,0.31359684467315674,0.44845324754714966,1.0,0.86,0.0007937005259840996
1024,0.31367307901382446,0.4476865828037262,1.0,0.86,0.0007937005259840996
1025,0.314204603433609,0.4459342062473297,1.0,0.86,0.0007937005259840996
1026,0.3135323226451874,0.44499096274375916,1.0,0.86,0.0007937005259840996
1027,0.31363633275032043,0.4443049132823944,1.0,0.86,0.0007937005259840996
1028,0.31371748447418213,0.44402584433555603,1.0,0.86,0.0007937005259840996
1029,0.3135681748390198,0.4437989294528961,1.0,0.86,0.0007937005259840996
1030,0.31383204460144043,0.44384318590164185,1.0,0.86,0.0007937005259840996
1031,0.31359240412712097,0.44454801082611084,1.0,0.86,0.0007937005259840996
1032,0.3137076199054718,0.44574174284935,1.0,0.86,0.0007937005259840996
1033,0.313679575920105,0.4474186599254608,1.0,0.86,0.0007937005259840996
1034,0.3137045204639435,0.44918620586395264,1.0,0.86,0.0007937005259840996
1035,0.3139418661594391,0.4514429569244385,1.0,0.85,0.0007937005259840996
1036,0.31386488676071167,0.453400582075119,1.0,0.85,0.0007937005259840996
1037,0.3136892020702362,0.45450541377067566,1.0,0.85,0.0007937005259840996
1038,0.31369322538375854,0.4548474848270416,1.0,0.85,0.0007937005259840996
1039,0.31358131766319275,0.45469579100608826,1.0,0.85,0.0007937005259840996
1040,0.31369438767433167,0.45474547147750854,1.0,0.85,0.0007937005259840996
1041,0.31364142894744873,0.4543392062187195,1.0,0.85,0.0007937005259840996
1042,0.31385546922683716,0.45347175002098083,1.0,0.85,0.0007937005259840996
1043,0.31355494260787964,0.45239734649658203,1.0,0.85,0.0007937005259840996
1044,0.3137437701225281,0.45079582929611206,1.0,0.86,0.0007937005259840996
1045,0.31361305713653564,0.44932061433792114,1.0,0.86,0.0007937005259840996
1046,0.31450343132019043,0.44880616664886475,1.0,0.86,0.0007937005259840996
1047,0.3136463761329651,0.4483424425125122,1.0,0.86,0.0007937005259840996
1048,0.3136700391769409,0.44822928309440613,1.0,0.86,0.0007937005259840996
1049,0.31381237506866455,0.4479365944862366,1.0,0.86,0.0007937005259840996
1050,0.31392011046409607,0.4474131464958191,1.0,0.86,0.0007937005259840996
1051,0.3136012554168701,0.4471813440322876,1.0,0.86,0.0007937005259840996
1052,0.31375205516815186,0.4475223422050476,1.0,0.86,0.0007937005259840996
1053,0.3136169910430908,0.44785773754119873,1.0,0.86,0.0007937005259840996
1054,0.3135911226272583,0.448238730430603,1.0,0.86,0.0007937005259840996
1055,0.31386733055114746,0.44888004660606384,1.0,0.86,0.0007937005259840996
1056,0.31365716457366943,0.44979751110076904,1.0,0.86,0.0007937005259840996
1057,0.31375759840011597,0.44995567202568054,1.0,0.86,0.0007937005259840996
1058,0.3136807680130005,0.4500366151332855,1.0,0.85,0.0007937005259840996
1059,0.3135935962200165,0.45014044642448425,1.0,0.85,0.0007937005259840996
1060,0.31370338797569275,0.450247585773468,1.0,0.85,0.0007937005259840996
1061,0.3135441839694977,0.4502677917480469,1.0,0.85,0.0007937005259840996
1062,0.3135990798473358,0.4501817226409912,1.0,0.85,0.0007937005259840996
1063,0.3135297894477844,0.4497702419757843,1.0,0.85,0.0007937005259840996
1064,0.3136119544506073,0.44958677887916565,1.0,0.85,0.0007937005259840996
1065,0.3137701153755188,0.4490145742893219,1.0,0.85,0.0007937005259840996
1066,0.31412041187286377,0.4466054439544678,1.0,0.86,0.0007937005259840996
1067,0.3138633370399475,0.4438152611255646,1.0,0.86,0.0007937005259840996
1068,0.31354281306266785,0.441519558429718,1.0,0.87,0.0007937005259840996
1069,0.31402161717414856,0.43978652358055115,1.0,0.87,0.0007937005259840996
1070,0.3135232925415039,0.43897128105163574,1.0,0.87,0.0007937005259840996
1071,0.3137921690940857,0.4396252930164337,1.0,0.87,0.0007937005259840996
1072,0.31363627314567566,0.4408041834831238,1.0,0.87,0.0007937005259840996
1073,0.3137413263320923,0.4428893029689789,1.0,0.87,0.0007937005259840996
1074,0.31369656324386597,0.44566604495048523,1.0,0.86,0.0007937005259840996
1075,0.31365951895713806,0.44842225313186646,1.0,0.86,0.0007937005259840996
1076,0.31373775005340576,0.45076847076416016,1.0,0.86,0.0007937005259840996
1077,0.31371262669563293,0.4529089331626892,1.0,0.85,0.0007937005259840996
1078,0.3136480152606964,0.45455458760261536,1.0,0.85,0.0007937005259840996
1079,0.31360259652137756,0.4556572735309601,1.0,0.85,0.0007937005259840996
1080,0.3137103319168091,0.45646512508392334,1.0,0.85,0.0007937005259840996
1081,0.31357038021087646,0.4567442834377289,1.0,0.85,0.0007937005259840996
1082,0.31382760405540466,0.45651254057884216,1.0,0.85,0.0007937005259840996
1083,0.31366053223609924,0.45622143149375916,1.0,0.85,0.0007937005259840996
1084,0.3136616051197052,0.455387145280838,1.0,0.85,0.0007937005259840996
1085,0.31361401081085205,0.45398983359336853,1.0,0.85,0.0007937005259840996
1086,0.3136676549911499,0.4522160291671753,1.0,0.85,0.0007937005259840996
1087,0.3135465979576111,0.45013588666915894,1.0,0.86,0.0007937005259840996
1088,0.31346994638442993,0.44777053594589233,1.0,0.86,0.0007937005259840996
1089,0.31359735131263733,0.44584351778030396,1.0,0.86,0.0007937005259840996
1090,0.3136322498321533,0.4444964528083801,1.0,0.86,0.0007937005259840996
1091,0.31370753049850464,0.44381698966026306,1.0,0.86,0.0007937005259840996
1092,0.31360846757888794,0.4425908625125885,1.0,0.87,0.0007937005259840996
1093,0.31367242336273193,0.4418465495109558,1.0,0.87,0.0007937005259840996
1094,0.3135707974433899,0.4419823884963989,1.0,0.87,0.0007937005259840996
1095,0.3135046064853668,0.4420927166938782,1.0,0.86,0.0007937005259840996
1096,0.3136155307292938,0.442656546831131,1.0,0.86,0.0007937005259840996
1097,0.313618540763855,0.4431283473968506,1.0,0.86,0.0007937005259840996
1098,0.31349214911460876,0.44351139664649963,1.0,0.86,0.0007937005259840996
1099,0.3136556148529053,0.44418415427207947,1.0,0.86,0.0007937005259840996
1100,0.31365370750427246,0.44441792368888855,1.0,0.86,0.0007937005259840996
1101,0.3135899603366852,0.4446018934249878,1.0,0.86,0.0007937005259840996
1102,0.31354820728302,0.4448372721672058,1.0,0.86,0.0007937005259840996
1103,0.31357893347740173,0.4450374245643616,1.0,0.86,0.0007937005259840996
1104,0.3138046860694885,0.44540730118751526,1.0,0.86,0.0007937005259840996
1105,0.3135766088962555,0.445997416973114,1.0,0.86,0.0007937005259840996
1106,0.31358736753463745,0.4467504918575287,1.0,0.86,0.0007937005259840996
1107,0.3135691285133362,0.44720590114593506,1.0,0.86,0.0007937005259840996
1108,0.3136509656906128,0.4476303458213806,1.0,0.86,0.0007937005259840996
1109,0.31362253427505493,0.4477999806404114,1.0,0.86,0.0007937005259840996
1110,0.3136619031429291,0.44798019528388977,1.0,0.85,0.0007937005259840996
1111,0.31354987621307373,0.4476712942123413,1.0,0.86,0.0007937005259840996
1112,0.3135426640510559,0.44760745763778687,1.0,0.86,0.0007937005259840996
1113,0.3135676085948944,0.4477197229862213,1.0,0.86,0.0007937005259840996
1114,0.31380847096443176,0.4480229914188385,1.0,0.86,0.0007937005259840996
1115,0.313447505235672,0.44841206073760986,1.0,0.86,0.0007937005259840996
1116,0.3138256371021271,0.4488016963005066,1.0,0.86,0.0007937005259840996
1117,0.31355154514312744,0.44931313395500183,1.0,0.86,0.0007937005259840996
1118,0.31352928280830383,0.44972655177116394,1.0,0.86,0.0007937005259840996
1119,0.3134903609752655,0.4498816728591919,1.0,0.86,0.0007937005259840996
1120,0.31359508633613586,0.4499090909957886,1.0,0.86,0.0007937005259840996
1121,0.313724547624588,0.44992026686668396,1.0,0.86,0.0007937005259840996
1122,0.31364840269088745,0.4497568905353546,1.0,0.86,0.0007937005259840996
1123,0.31352734565734863,0.4499450623989105,1.0,0.86,0.0007937005259840996
1124,0.313646137714386,0.4499209523200989,1.0,0.86,0.0007937005259840996
1125,0.31355607509613037,0.45006293058395386,1.0,0.86,0.0007937005259840996
1126,0.31386348605155945,0.44944971799850464,1.0,0.86,0.0007937005259840996
1127,0.3135950267314911,0.44886550307273865,1.0,0.86,0.0007937005259840996
1128,0.3135787844657898,0.4484025835990906,1.0,0.86,0.0007937005259840996
1129,0.31359627842903137,0.4477481544017792,1.0,0.86,0.0007937005259840996
1130,0.31352925300598145,0.447378009557724,1.0,0.86,0.0007937005259840996
1131,0.31350016593933105,0.447164386510849,1.0,0.86,0.0007937005259840996
1132,0.3136274814605713,0.4473195970058441,1.0,0.86,0.0007937005259840996
1133,0.3136194348335266,0.4477994441986084,1.0,0.86,0.0007937005259840996
1134,0.3135312795639038,0.4481200873851776,1.0,0.86,0.0007937005259840996
1135,0.31355682015419006,0.44862478971481323,1.0,0.86,0.0007937005259840996
1136,0.31387776136398315,0.44932690262794495,1.0,0.85,0.0007937005259840996
1137,0.31360164284706116,0.4497431218624115,1.0,0.85,0.0007937005259840996
1138,0.3134766221046448,0.4499482810497284,1.0,0.85,0.0007937005259840996
1139,0.31349724531173706,0.4496441185474396,1.0,0.86,0.0007937005259840996
1140,0.3136325776576996,0.4496935307979584,1.0,0.86,0.0007937005259840996
1141,0.31356269121170044,0.4498579502105713,1.0,0.86,0.0007937005259840996
1142,0.31364038586616516,0.4495452642440796,1.0,0.86,0.0007937005259840996
1143,0.3135433793067932,0.4495033025741577,1.0,0.86,0.0007937005259840996
1144,0.3135584890842438,0.4492208957672119,1.0,0.86,0.0007937005259840996
1145,0.3136157691478729,0.44893473386764526,1.0,0.86,0.0007937005259840996
1146,0.31360864639282227,0.4485560655593872,1.0,0.86,0.0007937005259840996
1147,0.3135956823825836,0.4487753212451935,1.0,0.86,0.0007937005259840996
1148,0.3135520815849304,0.4488532543182373,1.0,0.86,0.0007937005259840996
1149,0.3135637640953064,0.44896987080574036,1.0,0.86,0.0007937005259840996
1150,0.313525915145874,0.44891712069511414,1.0,0.86,0.0007937005259840996
1151,0.3135358393192291,0.4488045871257782,1.0,0.86,0.0007937005259840996
1152,0.3135118782520294,0.44908738136291504,1.0,0.86,0.0007937005259840996
1153,0.3136153519153595,0.44952601194381714,1.0,0.86,0.0007937005259840996
1154,0.31344863772392273,0.44967296719551086,1.0,0.86,0.0007937005259840996
1155,0.31361788511276245,0.449966698884964,1.0,0.86,0.0007937005259840996
1156,0.3136441707611084,0.45032164454460144,1.0,0.86,0.0007937005259840996
1157,0.3137337565422058,0.4505942463874817,1.0,0.86,0.0007937005259840996
1158,0.3136066794395447,0.45074766874313354,1.0,0.86,0.0007937005259840996
1159,0.31356126070022583,0.4507277011871338,1.0,0.86,0.0007937005259840996
1160,0.3136584162712097,0.45069295167922974,1.0,0.86,0.0007937005259840996
1161,0.31379225850105286,0.4497176706790924,1.0,0.86,0.0007937005259840996
1162,0.31358304619789124,0.4487420320510864,1.0,0.86,0.0007937005259840996
1163,0.3135663866996765,0.4472494125366211,1.0,0.86,0.0007937005259840996
1164,0.3136172890663147,0.4461513161659241,1.0,0.86,0.0007937005259840996
1165,0.3134898245334625,0.4454297125339508,1.0,0.86,0.0007937005259840996
1166,0.31358999013900757,0.4452688992023468,1.0,0.86,0.0007937005259840996
1167,0.3136054277420044,0.44560280442237854,1.0,0.86,0.0007937005259840996
1168,0.31354865431785583,0.4467191994190216,1.0,0.86,0.0007937005259840996
1169,0.31357190012931824,0.4478413760662079,1.0,0.86,0.0007937005259840996
1170,0.3135910928249359,0.44884440302848816,1.0,0.86,0.0007937005259840996
1171,0.31354889273643494,0.4496782720088959,1.0,0.86,0.0007937005259840996
1172,0.313541054725647,0.45041003823280334,1.0,0.86,0.0007937005259840996
1173,0.3134887218475342,0.4510272145271301,1.0,0.86,0.0007937005259840996
1174,0.313510000705719,0.4515552520751953,1.0,0.86,0.0007937005259840996
1175,0.3135790526866913,0.45171794295310974,1.0,0.86,0.0007937005259840996
1176,0.3134855329990387,0.4517560303211212,1.0,0.86,0.0007937005259840996
1177,0.3134811520576477,0.45168113708496094,1.0,0.86,0.0007937005259840996
1178,0.3139101266860962,0.4510868191719055,1.0,0.86,0.0007937005259840996
1179,0.31354662775993347,0.45045360922813416,1.0,0.86,0.0007937005259840996
1180,0.31350696086883545,0.45015034079551697,1.0,0.86,0.0007937005259840996
1181,0.3136049211025238,0.4500376880168915,1.0,0.86,0.0007937005259840996
1182,0.31349343061447144,0.45008260011672974,1.0,0.86,0.0007937005259840996
1183,0.3135508894920349,0.45020875334739685,1.0,0.85,0.0007937005259840996
1184,0.3134740889072418,0.45047786831855774,1.0,0.85,0.0007937005259840996
1185,0.31359273195266724,0.45069628953933716,1.0,0.86,0.0007937005259840996
1186,0.31345078349113464,0.4511628746986389,1.0,0.85,0.0007937005259840996
1187,0.3134770393371582,0.451643168926239,1.0,0.85,0.0007937005259840996
1188,0.3135320246219635,0.45194336771965027,1.0,0.85,0.0007937005259840996
1189,0.3135901689529419,0.4519992172718048,1.0,0.85,0.0006299605249474364
1190,0.3134424388408661,0.4519301652908325,1.0,0.85,0.0006299605249474364
1191,0.3135078251361847,0.4517635703086853,1.0,0.85,0.0006299605249474364
1192,0.3135114014148712,0.4515345096588135,1.0,0.85,0.0006299605249474364
1193,0.31349390745162964,0.4513039290904999,1.0,0.86,0.0006299605249474364
1194,0.3135671615600586,0.4509352445602417,1.0,0.86,0.0006299605249474364
1195,0.31358399987220764,0.4504069983959198,1.0,0.86,0.0006299605249474364
1196,0.31349679827690125,0.4499799609184265,1.0,0.86,0.0006299605249474364
1197,0.31352555751800537,0.44956496357917786,1.0,0.86,0.0006299605249474364
1198,0.31371933221817017,0.44951725006103516,1.0,0.86,0.0006299605249474364
1199,0.3135785758495331,0.4490000009536743,1.0,0.86,0.0006299605249474364
1200,0.31358039379119873,0.4488406777381897,1.0,0.86,0.0006299605249474364
1201,0.31346604228019714,0.44862034916877747,1.0,0.86,0.0006299605249474364
1202,0.31356775760650635,0.4485416114330292,1.0,0.86,0.0006299605249474364
1203,0.3135833442211151,0.44851577281951904,1.0,0.86,0.0006299605249474364
1204,0.3134811520576477,0.44857797026634216,1.0,0.86,0.0006299605249474364
1205,0.31349050998687744,0.44845277070999146,1.0,0.86,0.0006299605249474364
1206,0.3135347068309784,0.4483461380004883,1.0,0.86,0.0006299605249474364
1207,0.3135475218296051,0.4484691321849823,1.0,0.86,0.0006299605249474364
1208,0.31354859471321106,0.44820863008499146,1.0,0.86,0.0006299605249474364
1209,0.31354397535324097,0.44806259870529175,1.0,0.86,0.0006299605249474364
1210,0.3135564625263214,0.4479687213897705,1.0,0.86,0.0006299605249474364
1211,0.3134828805923462,0.4479382336139679,1.0,0.86,0.0006299605249474364
1212,0.3134995102882385,0.4481150507926941,1.0,0.86,0.0006299605249474364
1213,0.3135598599910736,0.4482002258300781,1.0,0.86,0.0006299605249474364
1214,0.3135679364204407,0.4483664631843567,1.0,0.86,0.0006299605249474364
1215,0.3135579228401184,0.44825926423072815,1.0,0.86,0.0006299605249474364
1216,0.3134319484233856,0.44826942682266235,1.0,0.86,0.0006299605249474364
1217,0.3136013150215149,0.44843924045562744,1.0,0.86,0.0006299605249474364
1218,0.31353089213371277,0.4488333761692047,1.0,0.86,0.0006299605249474364
1219,0.31350472569465637,0.4492322504520416,1.0,0.86,0.0006299605249474364
1220,0.3136431574821472,0.44898051023483276,1.0,0.86,0.0006299605249474364
1221,0.3136923611164093,0.4493878483772278,1.0,0.86,0.0006299605249474364
1222,0.3134754002094269,0.4495479166507721,1.0,0.86,0.0006299605249474364
1223,0.313454270362854,0.44970703125,1.0,0.86,0.0006299605249474364
1224,0.3137781620025635,0.45086994767189026,1.0,0.85,0.0006299605249474364
1225,0.3134951591491699,0.45164257287979126,1.0,0.85,0.0006299605249474364
1226,0.3134962320327759,0.4522455632686615,1.0,0.85,0.0006299605249474364
1227,0.31364408135414124,0.45269179344177246,1.0,0.85,0.0006299605249474364
1228,0.3135608434677124,0.45300406217575073,1.0,0.85,0.0006299605249474364
1229,0.3135485351085663,0.4532907009124756,1.0,0.85,0.0006299605249474364
1230,0.31352367997169495,0.45330947637557983,1.0,0.85,0.0006299605249474364
1231,0.3135014772415161,0.45320355892181396,1.0,0.86,0.0006299605249474364
1232,0.31351304054260254,0.45294636487960815,1.0,0.86,0.0006299605249474364
1233,0.3137466609477997,0.4525740146636963,1.0,0.86,0.0006299605249474364
1234,0.3135265111923218,0.4520812928676605,1.0,0.86,0.0006299605249474364
1235,0.313508540391922,0.4515346884727478,1.0,0.86,0.0006299605249474364
1236,0.31347960233688354,0.45086386799812317,1.0,0.86,0.0006299605249474364
1237,0.3136535584926605,0.45005062222480774,1.0,0.86,0.0006299605249474364
1238,0.31356698274612427,0.4492673873901367,1.0,0.86,0.0006299605249474364
1239,0.3134422302246094,0.44844454526901245,1.0,0.86,0.0006299605249474364
1240,0.3135913014411926,0.4477853775024414,1.0,0.86,0.0006299605249474364
1241,0.3134937584400177,0.44716495275497437,1.0,0.86,0.0006299605249474364
1242,0.3134731948375702,0.4469628632068634,1.0,0.86,0.0006299605249474364
1243,0.3135039508342743,0.4469328820705414,1.0,0.86,0.0006299605249474364
1244,0.31341269612312317,0.4470137059688568,1.0,0.86,0.0006299605249474364
1245,0.31355977058410645,0.4472488760948181,1.0,0.86,0.0006299605249474364
1246,0.3136535882949829,0.44782668352127075,1.0,0.86,0.0006299605249474364
1247,0.3134314715862274,0.44827738404273987,1.0,0.86,0.0006299605249474364
1248,0.3135988116264343,0.4487718939781189,1.0,0.86,0.0006299605249474364
1249,0.31349408626556396,0.4492649734020233,1.0,0.86,0.0006299605249474364
1250,0.3134850561618805,0.44963428378105164,1.0,0.86,0.0006299605249474364
1251,0.31355342268943787,0.4499545991420746,1.0,0.86,0.0006299605249474364
1252,0.31351691484451294,0.4503020942211151,1.0,0.86,0.0006299605249474364
1253,0.3135644197463989,0.45052313804626465,1.0,0.86,0.0006299605249474364
1254,0.3135921359062195,0.45081591606140137,1.0,0.86,0.0006299605249474364
1255,0.31357693672180176,0.45094698667526245,1.0,0.86,0.0006299605249474364
1256,0.3134879469871521,0.45108509063720703,1.0,0.86,0.0006299605249474364
1257,0.31346508860588074,0.4510233700275421,1.0,0.86,0.0006299605249474364
1258,0.31349092721939087,0.4509892761707306,1.0,0.86,0.0006299605249474364
1259,0.31347933411598206,0.4509631395339966,1.0,0.86,0.0006299605249474364
1260,0.313442200422287,0.4507919251918793,1.0,0.86,0.0006299605249474364
1261,0.313583105802536,0.4505182206630707,1.0,0.86,0.0006299605249474364
1262,0.3135669231414795,0.4503595232963562,1.0,0.86,0.0006299605249474364
1263,0.31348592042922974,0.4502049386501312,1.0,0.86,0.0006299605249474364
1264,0.31364551186561584,0.44981905817985535,1.0,0.86,0.0006299605249474364
1265,0.3134981095790863,0.4494589865207672,1.0,0.86,0.0006299605249474364
1266,0.3136230707168579,0.4488466680049896,1.0,0.86,0.0006299605249474364
1267,0.3135334253311157,0.44823724031448364,1.0,0.86,0.0006299605249474364
1268,0.3135251998901367,0.4474443793296814,1.0,0.86,0.0006299605249474364
1269,0.3134736120700836,0.44676995277404785,1.0,0.86,0.0006299605249474364
1270,0.3135126233100891,0.4462765157222748,1.0,0.86,0.0006299605249474364
1271,0.31402766704559326,0.4469432532787323,1.0,0.86,0.0006299605249474364
1272,0.31342828273773193,0.447469025850296,1.0,0.86,0.0006299605249474364
1273,0.31346890330314636,0.44805389642715454,1.0,0.86,0.0006299605249474364
1274,0.31350773572921753,0.4485502243041992,1.0,0.86,0.0006299605249474364
1275,0.31346067786216736,0.4490646421909332,1.0,0.86,0.0006299605249474364
1276,0.31376829743385315,0.4493403732776642,1.0,0.86,0.0006299605249474364
1277,0.3134993016719818,0.44927752017974854,1.0,0.86,0.0006299605249474364
1278,0.31360453367233276,0.44934719800949097,1.0,0.86,0.0006299605249474364
1279,0.31353336572647095,0.44944941997528076,1.0,0.86,0.0006299605249474364
1280,0.31351691484451294,0.44979506731033325,1.0,0.86,0.0006299605249474364
1281,0.3136979937553406,0.4500078856945038,1.0,0.85,0.0006299605249474364
1282,0.3135126233100891,0.44992682337760925,1.0,0.85,0.0006299605249474364
1283,0.3135591447353363,0.45015332102775574,1.0,0.85,0.0006299605249474364
1284,0.31344544887542725,0.45050013065338135,1.0,0.85,0.0006299605249474364
1285,0.31357094645500183,0.4508878290653229,1.0,0.85,0.0006299605249474364
1286,0.313501238822937,0.45156440138816833,1.0,0.85,0.0006299605249474364
1287,0.3135156035423279,0.451959490776062,1.0,0.85,0.0006299605249474364
1288,0.3135457932949066,0.45262640714645386,1.0,0.85,0.0006299605249474364
1289,0.31348296999931335,0.45325592160224915,1.0,0.85,0.0006299605249474364
1290,0.3135136663913727,0.4535444676876068,1.0,0.85,0.0006299605249474364
1291,0.3135315179824829,0.4537443518638611,1.0,0.85,0.0006299605249474364
1292,0.31348273158073425,0.45386365056037903,1.0,0.85,0.0006299605249474364
1293,0.3135557472705841,0.45396655797958374,1.0,0.85,0.0006299605249474364
1294,0.31349316239356995,0.4538848400115967,1.0,0.85,0.0006299605249474364
1295,0.313518762588501,0.4537056088447571,1.0,0.85,0.0006299605249474364
1296,0.31344735622406006,0.4535714089870453,1.0,0.85,0.0006299605249474364
1297,0.3134560286998749,0.4533528983592987,1.0,0.85,0.0006299605249474364
1298,0.3134964108467102,0.4529567062854767,1.0,0.85,0.0006299605249474364
1299,0.31352055072784424,0.45248427987098694,1.0,0.85,0.0006299605249474364
1300,0.31351613998413086,0.45190319418907166,1.0,0.86,0.0006299605249474364
1301,0.3134852349758148,0.4513891935348511,1.0,0.86,0.0006299605249474364
1302,0.3135215640068054,0.45086169242858887,1.0,0.86,0.0006299605249474364
1303,0.3135283589363098,0.4505867660045624,1.0,0.86,0.0006299605249474364
1304,0.31351029872894287,0.45024436712265015,1.0,0.86,0.0006299605249474364
1305,0.3134150803089142,0.44993552565574646,1.0,0.86,0.0006299605249474364
1306,0.313501238822937,0.4497874975204468,1.0,0.86,0.0006299605249474364
1307,0.31349977850914,0.449723482131958,1.0,0.86,0.0006299605249474364
1308,0.31354352831840515,0.4498363435268402,1.0,0.86,0.0006299605249474364
1309,0.31349170207977295,0.4499925673007965,1.0,0.86,0.0006299605249474364
1310,0.3134276270866394,0.45018112659454346,1.0,0.86,0.0006299605249474364
1311,0.3135508894920349,0.4502480626106262,1.0,0.86,0.0006299605249474364
1312,0.31356996297836304,0.45003825426101685,1.0,0.86,0.0006299605249474364
1313,0.31345921754837036,0.44988879561424255,1.0,0.86,0.0006299605249474364
1314,0.31340649724006653,0.4496612548828125,1.0,0.86,0.0006299605249474364
1315,0.31350207328796387,0.4495123326778412,1.0,0.86,0.0006299605249474364
1316,0.31345704197883606,0.449524849653244,1.0,0.86,0.0006299605249474364
1317,0.3134545385837555,0.44968241453170776,1.0,0.86,0.0004999999999999997
1318,0.31349971890449524,0.4496202766895294,1.0,0.86,0.0004999999999999997
1319,0.313497394323349,0.4497561752796173,1.0,0.86,0.0004999999999999997
1320,0.31347593665122986,0.4499984681606293,1.0,0.86,0.0004999999999999997
1321,0.3135052025318146,0.4501396119594574,1.0,0.86,0.0004999999999999997
1322,0.3134976625442505,0.45011448860168457,1.0,0.86,0.0004999999999999997
1323,0.3134371042251587,0.45025500655174255,1.0,0.86,0.0004999999999999997
1324,0.3134612441062927,0.4503864347934723,1.0,0.86,0.0004999999999999997
1325,0.3134937584400177,0.45046165585517883,1.0,0.86,0.0004999999999999997
1326,0.3134872615337372,0.4505033493041992,1.0,0.86,0.0004999999999999997
1327,0.3135020136833191,0.45057857036590576,1.0,0.86,0.0004999999999999997
1328,0.31348347663879395,0.45051971077919006,1.0,0.86,0.0004999999999999997
1329,0.3134782314300537,0.4504757821559906,1.0,0.86,0.0004999999999999997
1330,0.3134315609931946,0.45046481490135193,1.0,0.86,0.0004999999999999997
1331,0.31345629692077637,0.45039498805999756,1.0,0.86,0.0004999999999999997
1332,0.31347164511680603,0.45037487149238586,1.0,0.86,0.0004999999999999997
1333,0.31354424357414246,0.450412392616272,1.0,0.86,0.0004999999999999997
1334,0.31377163529396057,0.45096054673194885,1.0,0.85,0.0004999999999999997
1335,0.3135923445224762,0.4511626362800598,1.0,0.85,0.0004999999999999997
1336,0.3135310411453247,0.45163416862487793,1.0,0.85,0.0004999999999999997
1337,0.3134254813194275,0.4519771635532379,1.0,0.85,0.0004999999999999997
1338,0.31347909569740295,0.4521963596343994,1.0,0.85,0.0004999999999999997
1339,0.31358397006988525,0.45238208770751953,1.0,0.85,0.0004999999999999997
1340,0.3134913146495819,0.452623188495636,1.0,0.85,0.0004999999999999997
1341,0.31347575783729553,0.4529455304145813,1.0,0.85,0.0004999999999999997
1342,0.3134622275829315,0.4530147612094879,1.0,0.85,0.0004999999999999997
1343,0.31345778703689575,0.4529246985912323,1.0,0.85,0.0004999999999999997
1344,0.31349506974220276,0.45275869965553284,1.0,0.85,0.0004999999999999997
1345,0.3134268522262573,0.4524831473827362,1.0,0.85,0.0004999999999999997
1346,0.3134434223175049,0.4522329568862915,1.0,0.85,0.0004999999999999997
1347,0.3135906457901001,0.451699435710907,1.0,0.86,0.0004999999999999997
1348,0.3135013282299042,0.4513702392578125,1.0,0.86,0.0004999999999999997
1349,0.3134932219982147,0.45094549655914307,1.0,0.86,0.0004999999999999997
1350,0.3134789764881134,0.450606107711792,1.0,0.86,0.0004999999999999997
1351,0.3134539723396301,0.4503251314163208,1.0,0.86,0.0004999999999999997
1352,0.3135611414909363,0.4498407244682312,1.0,0.86,0.0004999999999999997
1353,0.3135170340538025,0.44959738850593567,1.0,0.86,0.0004999999999999997
1354,0.31344398856163025,0.4492550194263458,1.0,0.86,0.0004999999999999997
1355,0.31348198652267456,0.4490121603012085,1.0,0.86,0.0004999999999999997
1356,0.3135409653186798,0.44860729575157166,1.0,0.86,0.0004999999999999997
1357,0.3134459853172302,0.4482702612876892,1.0,0.86,0.0004999999999999997
1358,0.3137449324131012,0.4474264979362488,1.0,0.86,0.0004999999999999997
1359,0.31356093287467957,0.4471072852611542,1.0,0.86,0.0004999999999999997
1360,0.3134600818157196,0.44697070121765137,1.0,0.86,0.0004999999999999997
1361,0.31344008445739746,0.4468671381473541,1.0,0.86,0.0004999999999999997
1362,0.31342461705207825,0.4467850923538208,1.0,0.86,0.0004999999999999997
1363,0.31342947483062744,0.44687962532043457,1.0,0.86,0.0004999999999999997
1364,0.3135611414909363,0.4473441243171692,1.0,0.86,0.0004999999999999997
1365,0.3134635388851166,0.4479222595691681,1.0,0.86,0.0004999999999999997
1366,0.3136494755744934,0.4488406479358673,1.0,0.86,0.0004999999999999997
1367,0.31343719363212585,0.4498853385448456,1.0,0.86,0.0004999999999999997
1368,0.3134440779685974,0.45065635442733765,1.0,0.86,0.0004999999999999997
1369,0.3136017322540283,0.45134449005126953,1.0,0.86,0.0004999999999999997
1370,0.31347355246543884,0.4518563151359558,1.0,0.85,0.0004999999999999997
1371,0.3134738504886627,0.45213714241981506,1.0,0.85,0.0004999999999999997
1372,0.3136090338230133,0.4520804286003113,1.0,0.86,0.0004999999999999997
1373,0.31343573331832886,0.4519631862640381,1.0,0.86,0.0004999999999999997
1374,0.31339922547340393,0.4518541395664215,1.0,0.86,0.0004999999999999997
1375,0.3134693205356598,0.45171695947647095,1.0,0.86,0.0004999999999999997
1376,0.31348365545272827,0.45137840509414673,1.0,0.86,0.0004999999999999997
1377,0.3134889006614685,0.4510685205459595,1.0,0.86,0.0004999999999999997
1378,0.3134555518627167,0.45065170526504517,1.0,0.86,0.0004999999999999997
1379,0.313517302274704,0.450199693441391,1.0,0.86,0.0004999999999999997
1380,0.3134935200214386,0.44971054792404175,1.0,0.86,0.0004999999999999997
1381,0.31352877616882324,0.4491519629955292,1.0,0.86,0.0004999999999999997
1382,0.3134618103504181,0.44866764545440674,1.0,0.86,0.0004999999999999997
1383,0.31353819370269775,0.4481847882270813,1.0,0.86,0.0004999999999999997
1384,0.31354451179504395,0.44773852825164795,1.0,0.86,0.0004999999999999997
1385,0.31348666548728943,0.4474545419216156,1.0,0.86,0.0004999999999999997
1386,0.31345000863075256,0.447447270154953,1.0,0.86,0.0004999999999999997
1387,0.3134177029132843,0.447437047958374,1.0,0.86,0.0004999999999999997
1388,0.3134789764881134,0.4475284218788147,1.0,0.86,0.0004999999999999997
1389,0.3135298788547516,0.44761642813682556,1.0,0.86,0.0004999999999999997
1390,0.31353527307510376,0.44789746403694153,1.0,0.86,0.0004999999999999997
1391,0.3135460317134857,0.44786137342453003,1.0,0.86,0.0004999999999999997
1392,0.3135238587856293,0.44800567626953125,1.0,0.86,0.0004999999999999997
1393,0.3138069808483124,0.4476696252822876,1.0,0.86,0.0004999999999999997
1394,0.31362298130989075,0.4477404057979584,1.0,0.86,0.0004999999999999997
1395,0.31360363960266113,0.44808319211006165,1.0,0.86,0.0004999999999999997
1396,0.3134166896343231,0.4483937919139862,1.0,0.86,0.0004999999999999997
1397,0.3135620355606079,0.4484337866306305,1.0,0.86,0.0004999999999999997
1398,0.3134693205356598,0.44860294461250305,1.0,0.86,0.0004999999999999997
1399,0.3135965168476105,0.4489469826221466,1.0,0.86,0.0004999999999999997
1400,0.31343790888786316,0.44928646087646484,1.0,0.86,0.0004999999999999997
1401,0.3134455978870392,0.4495934247970581,1.0,0.86,0.0004999999999999997
1402,0.3134657144546509,0.44983813166618347,1.0,0.86,0.0004999999999999997
1403,0.31343182921409607,0.4499913156032562,1.0,0.86,0.0004999999999999997
1404,0.31348639726638794,0.4501597583293915,1.0,0.86,0.0004999999999999997
1405,0.31347566843032837,0.45029765367507935,1.0,0.86,0.0004999999999999997
1406,0.31340643763542175,0.4503443241119385,1.0,0.86,0.0004999999999999997
1407,0.31348109245300293,0.45047837495803833,1.0,0.86,0.0004999999999999997
1408,0.31344014406204224,0.45057564973831177,1.0,0.86,0.0004999999999999997
1409,0.31346720457077026,0.45071524381637573,1.0,0.86,0.0004999999999999997
1410,0.3134898841381073,0.4508083462715149,1.0,0.86,0.0004999999999999997
1411,0.31347188353538513,0.45075881481170654,1.0,0.86,0.0004999999999999997
1412,0.31348204612731934,0.4506150782108307,1.0,0.86,0.0004999999999999997
1413,0.3134702444076538,0.4505024254322052,1.0,0.86,0.0004999999999999997
1414,0.31340736150741577,0.4504130482673645,1.0,0.86,0.0004999999999999997
1415,0.31354820728302,0.45040321350097656,1.0,0.86,0.0004999999999999997
1416,0.3134518563747406,0.4504111409187317,1.0,0.86,0.0004999999999999997
1417,0.3135164976119995,0.4504459500312805,1.0,0.86,0.0004999999999999997
1418,0.31343594193458557,0.4503968060016632,1.0,0.86,0.0004999999999999997
1419,0.31345799565315247,0.4502466320991516,1.0,0.86,0.0004999999999999997
1420,0.31354203820228577,0.4498324692249298,1.0,0.86,0.0004999999999999997
1421,0.31343451142311096,0.44953322410583496,1.0,0.86,0.0004999999999999997
1422,0.31343990564346313,0.4491506516933441,1.0,0.86,0.0004999999999999997
1423,0.3134967088699341,0.44885870814323425,1.0,0.86,0.0004999999999999997
1424,0.31347978115081787,0.4488438665866852,1.0,0.86,0.0004999999999999997
1425,0.3135119676589966,0.44856271147727966,1.0,0.86,0.0004999999999999997
1426,0.31356140971183777,0.4486308693885803,1.0,0.86,0.0004999999999999997
1427,0.3135238587856293,0.44862130284309387,1.0,0.86,0.0004999999999999997
1428,0.3135169744491577,0.4488809108734131,1.0,0.86,0.0004999999999999997
1429,0.3134344220161438,0.4489322900772095,1.0,0.86,0.0004999999999999997
1430,0.3134133219718933,0.44894132018089294,1.0,0.86,0.0004999999999999997
1431,0.31348443031311035,0.4492455720901489,1.0,0.86,0.0004999999999999997
1432,0.3134666383266449,0.44946470856666565,1.0,0.86,0.0004999999999999997
1433,0.31349673867225647,0.44979003071784973,1.0,0.86,0.0004999999999999997
1434,0.3134545087814331,0.4501242935657501,1.0,0.86,0.0004999999999999997
1435,0.31345468759536743,0.45037034153938293,1.0,0.86,0.0004999999999999997
1436,0.3135055601596832,0.4505474865436554,1.0,0.86,0.0004999999999999997
1437,0.3134739100933075,0.4506458640098572,1.0,0.86,0.0004999999999999997
1438,0.31352049112319946,0.4508252739906311,1.0,0.86,0.0004999999999999997
1439,0.31351935863494873,0.45074063539505005,1.0,0.86,0.0004999999999999997
1440,0.3134518563747406,0.4506281018257141,1.0,0.86,0.0004999999999999997
1441,0.3134802579879761,0.4506351351737976,1.0,0.86,0.0004999999999999997
1442,0.3136062026023865,0.45032191276550293,1.0,0.86,0.0004999999999999997
1443,0.3134412467479706,0.4499847888946533,1.0,0.86,0.0004999999999999997
1444,0.31351059675216675,0.44979172945022583,1.0,0.86,0.0004999999999999997
1445,0.3134068548679352,0.44945380091667175,1.0,0.86,0.0004999999999999997
1446,0.3134543001651764,0.4492955803871155,1.0,0.86,0.0004999999999999997
1447,0.313437819480896,0.4491521716117859,1.0,0.86,0.0004999999999999997
1448,0.31342944502830505,0.4489709138870239,1.0,0.86,0.0004999999999999997
1449,0.3135533034801483,0.44917938113212585,1.0,0.86,0.0004999999999999997
1450,0.31342700123786926,0.4494018256664276,1.0,0.86,0.0004999999999999997
1451,0.31343311071395874,0.44965848326683044,1.0,0.86,0.0004999999999999997
1452,0.31353560090065,0.4499736726284027,1.0,0.86,0.0004999999999999997
1453,0.3134578764438629,0.45030727982521057,1.0,0.86,0.0004999999999999997
1454,0.31342217326164246,0.4505903720855713,1.0,0.86,0.0004999999999999997
1455,0.31340572237968445,0.45087680220603943,1.0,0.86,0.0004999999999999997
1456,0.3134859502315521,0.45126792788505554,1.0,0.85,0.0004999999999999997
1457,0.3135155141353607,0.45148178935050964,1.0,0.85,0.0004999999999999997
1458,0.3134233355522156,0.4517878293991089,1.0,0.85,0.0004999999999999997
1459,0.31365081667900085,0.4517626166343689,1.0,0.85,0.0004999999999999997
1460,0.3134731650352478,0.4518703520298004,1.0,0.85,0.0004999999999999997
1461,0.3134542405605316,0.4518669843673706,1.0,0.85,0.0004999999999999997
1462,0.31347090005874634,0.4516035318374634,1.0,0.85,0.0004999999999999997
1463,0.31378456950187683,0.45063087344169617,1.0,0.86,0.0004999999999999997
1464,0.31344643235206604,0.4496787190437317,1.0,0.86,0.0004999999999999997
1465,0.31355977058410645,0.44881319999694824,1.0,0.86,0.0004999999999999997
1466,0.3134407103061676,0.447833776473999,1.0,0.86,0.0004999999999999997
1467,0.31343328952789307,0.44679462909698486,1.0,0.86,0.0004999999999999997
1468,0.3135075271129608,0.4460947811603546,1.0,0.86,0.0004999999999999997
1469,0.313460111618042,0.4456951916217804,1.0,0.86,0.0004999999999999997
1470,0.3134843707084656,0.44539815187454224,1.0,0.86,0.0004999999999999997
1471,0.3134041428565979,0.44539204239845276,1.0,0.86,0.0004999999999999997
1472,0.3134065866470337,0.44557616114616394,1.0,0.86,0.0004999999999999997
1473,0.3134375810623169,0.44589874148368835,1.0,0.86,0.0004999999999999997
1474,0.3136998414993286,0.4458097219467163,1.0,0.86,0.0004999999999999997
1475,0.3134363889694214,0.44585487246513367,1.0,0.86,0.00039685026299204955
1476,0.3133937418460846,0.4460583031177521,1.0,0.86,0.00039685026299204955
1477,0.3134409785270691,0.4463416635990143,1.0,0.86,0.00039685026299204955
1478,0.31356820464134216,0.446863055229187,1.0,0.86,0.00039685026299204955
1479,0.3134385645389557,0.44754722714424133,1.0,0.86,0.00039685026299204955
1480,0.3135702610015869,0.44850844144821167,1.0,0.86,0.00039685026299204955
1481,0.31346991658210754,0.4493993818759918,1.0,0.86,0.00039685026299204955
1482,0.31343942880630493,0.4500580132007599,1.0,0.86,0.00039685026299204955
1483,0.31345656514167786,0.4506349563598633,1.0,0.86,0.00039685026299204955
1484,0.3134220242500305,0.45110374689102173,1.0,0.86,0.00039685026299204955
1485,0.31345322728157043,0.45139235258102417,1.0,0.85,0.00039685026299204955
1486,0.31342461705207825,0.4515954256057739,1.0,0.85,0.00039685026299204955
1487,0.3134782016277313,0.45184656977653503,1.0,0.85,0.00039685026299204955
1488,0.31348946690559387,0.4518824815750122,1.0,0.85,0.00039685026299204955
1489,0.3135620057582855,0.4518970549106598,1.0,0.85,0.00039685026299204955
1490,0.31348851323127747,0.4518345594406128,1.0,0.85,0.00039685026299204955
1491,0.31343454122543335,0.4517519772052765,1.0,0.85,0.00039685026299204955
1492,0.31341302394866943,0.45162272453308105,1.0,0.86,0.00039685026299204955
1493,0.3134573698043823,0.4514772295951843,1.0,0.86,0.00039685026299204955
1494,0.3134414553642273,0.4513387680053711,1.0,0.86,0.00039685026299204955
1495,0.3134500980377197,0.45113199949264526,1.0,0.86,0.00039685026299204955
1496,0.31352952122688293,0.450723797082901,1.0,0.86,0.00039685026299204955
1497,0.31341856718063354,0.45042169094085693,1.0,0.86,0.00039685026299204955
1498,0.3134883642196655,0.4501260817050934,1.0,0.86,0.00039685026299204955
1499,0.3134743571281433,0.44996556639671326,1.0,0.86,0.00039685026299204955
1500,0.3134017586708069,0.44963157176971436,1.0,0.86,0.00039685026299204955
1501,0.313388854265213,0.44959554076194763,1.0,0.86,0.00039685026299204955
1502,0.31349003314971924,0.4495800733566284,1.0,0.86,0.00039685026299204955
1503,0.31339797377586365,0.4495503902435303,1.0,0.86,0.00039685026299204955
1504,0.31352004408836365,0.44937074184417725,1.0,0.86,0.00039685026299204955
1505,0.3134007751941681,0.44931021332740784,1.0,0.86,0.00039685026299204955
1506,0.3134228587150574,0.4492867588996887,1.0,0.86,0.00039685026299204955
1507,0.31339511275291443,0.44936230778694153,1.0,0.86,0.00039685026299204955
1508,0.3135394752025604,0.4496983289718628,1.0,0.86,0.00039685026299204955
1509,0.31347519159317017,0.45002156496047974,1.0,0.86,0.00039685026299204955
1510,0.31343749165534973,0.45047858357429504,1.0,0.86,0.00039685026299204955
1511,0.31348496675491333,0.4508304297924042,1.0,0.86,0.00039685026299204955
1512,0.31344014406204224,0.4511147439479828,1.0,0.86,0.00039685026299204955
1513,0.31338414549827576,0.4514239430427551,1.0,0.86,0.00039685026299204955
1514,0.3134288489818573,0.4515588879585266,1.0,0.86,0.00039685026299204955
1515,0.313426673412323,0.4517248272895813,1.0,0.86,0.00039685026299204955
1516,0.3136726915836334,0.45167410373687744,1.0,0.86,0.00039685026299204955
1517,0.3135635256767273,0.45164480805397034,1.0,0.86,0.00039685026299204955
1518,0.3135506510734558,0.45127081871032715,1.0,0.86,0.00039685026299204955
1519,0.3134361505508423,0.45084598660469055,1.0,0.86,0.00039685026299204955
1520,0.31339386105537415,0.45040032267570496,1.0,0.86,0.00039685026299204955
1521,0.3134778141975403,0.45007190108299255,1.0,0.86,0.00039685026299204955
1522,0.3134307861328125,0.449881374835968,1.0,0.86,0.00039685026299204955
1523,0.31349074840545654,0.44978049397468567,1.0,0.86,0.00039685026299204955
1524,0.3134379982948303,0.44969069957733154,1.0,0.86,0.00039685026299204955
1525,0.3135567605495453,0.44975265860557556,1.0,0.86,0.00039685026299204955
1526,0.31340327858924866,0.4498518705368042,1.0,0.86,0.00039685026299204955
1527,0.3134922385215759,0.4498956799507141,1.0,0.86,0.00039685026299204955
1528,0.31345269083976746,0.4500941336154938,1.0,0.86,0.00039685026299204955
1529,0.3134481608867645,0.4502709209918976,1.0,0.86,0.00039685026299204955
1530,0.31340277194976807,0.4503682851791382,1.0,0.86,0.00039685026299204955
1531,0.3135429918766022,0.4506250321865082,1.0,0.86,0.00039685026299204955
1532,0.31345808506011963,0.45080429315567017,1.0,0.86,0.00039685026299204955
1533,0.3133988380432129,0.45102033019065857,1.0,0.86,0.00039685026299204955
1534,0.31350991129875183,0.4512464106082916,1.0,0.86,0.00039685026299204955
1535,0.3135407567024231,0.45153629779815674,1.0,0.86,0.00039685026299204955
1536,0.313454806804657,0.45186111330986023,1.0,0.86,0.00039685026299204955
1537,0.3134509325027466,0.45218008756637573,1.0,0.86,0.00039685026299204955
1538,0.3134225904941559,0.45242801308631897,1.0,0.86,0.00039685026299204955
1539,0.31339967250823975,0.45252907276153564,1.0,0.86,0.00039685026299204955
1540,0.3134762644767761,0.45263671875,1.0,0.86,0.00039685026299204955
1541,0.3134433329105377,0.4527747333049774,1.0,0.86,0.00039685026299204955
1542,0.3134066164493561,0.45283669233322144,1.0,0.86,0.00039685026299204955
1543,0.31345221400260925,0.4528886079788208,1.0,0.86,0.00039685026299204955
1544,0.313520610332489,0.4529070556163788,1.0,0.86,0.00039685026299204955
1545,0.3134104311466217,0.4528683125972748,1.0,0.86,0.00039685026299204955
1546,0.3134145736694336,0.45285630226135254,1.0,0.86,0.00039685026299204955
1547,0.313426673412323,0.4527798891067505,1.0,0.86,0.00039685026299204955
1548,0.3137277364730835,0.4525223672389984,1.0,0.86,0.00039685026299204955
1549,0.3134613335132599,0.4521214962005615,1.0,0.86,0.00039685026299204955
1550,0.31342583894729614,0.45168834924697876,1.0,0.86,0.00039685026299204955
1551,0.3134881258010864,0.45140397548675537,1.0,0.86,0.00039685026299204955
1552,0.313416451215744,0.45114272832870483,1.0,0.86,0.00039685026299204955
1553,0.3134627044200897,0.4509715139865875,1.0,0.86,0.00039685026299204955
1554,0.31344276666641235,0.45069167017936707,1.0,0.86,0.00039685026299204955
1555,0.31351256370544434,0.4507746994495392,1.0,0.86,0.00039685026299204955
1556,0.31352347135543823,0.45082396268844604,1.0,0.86,0.00039685026299204955
1557,0.3134198486804962,0.45085129141807556,1.0,0.86,0.00039685026299204955
1558,0.3134232759475708,0.45099925994873047,1.0,0.86,0.00039685026299204955
1559,0.3134663999080658,0.451033353805542,1.0,0.86,0.00039685026299204955
1560,0.3134516775608063,0.451133131980896,1.0,0.86,0.00039685026299204955
1561,0.3134307861328125,0.4512757956981659,1.0,0.86,0.00039685026299204955
1562,0.31342747807502747,0.4513872563838959,1.0,0.86,0.00039685026299204955
1563,0.31339624524116516,0.4513958990573883,1.0,0.86,0.00039685026299204955
1564,0.3134775161743164,0.4514593183994293,1.0,0.86,0.00039685026299204955
1565,0.31354594230651855,0.4514658451080322,1.0,0.86,0.00039685026299204955
1566,0.3133992850780487,0.4515691101551056,1.0,0.86,0.00039685026299204955
1567,0.3134362995624542,0.45164623856544495,1.0,0.86,0.00039685026299204955
1568,0.31342536211013794,0.45160308480262756,1.0,0.86,0.00039685026299204955
1569,0.3134509027004242,0.45160961151123047,1.0,0.86,0.00039685026299204955
1570,0.3134371340274811,0.451651394367218,1.0,0.86,0.00039685026299204955
1571,0.3137843608856201,0.4510084390640259,1.0,0.86,0.00039685026299204955
1572,0.3135896921157837,0.45080170035362244,1.0,0.86,0.00039685026299204955
1573,0.3134916126728058,0.450689435005188,1.0,0.86,0.00039685026299204955
1574,0.3133907914161682,0.4504287838935852,1.0,0.86,0.00039685026299204955
1575,0.31342414021492004,0.4501781165599823,1.0,0.86,0.00039685026299204955
1576,0.31353867053985596,0.44985294342041016,1.0,0.86,0.00031498026247371797
1577,0.31348589062690735,0.44975176453590393,1.0,0.86,0.00031498026247371797
1578,0.3134741187095642,0.4498353600502014,1.0,0.86,0.00031498026247371797
1579,0.3134075105190277,0.4499059021472931,1.0,0.86,0.00031498026247371797
1580,0.3134371042251587,0.4501217305660248,1.0,0.86,0.00031498026247371797
1581,0.3134508430957794,0.45040953159332275,1.0,0.86,0.00031498026247371797
1582,0.3135053515434265,0.45078617334365845,1.0,0.86,0.00031498026247371797
1583,0.31347769498825073,0.45125511288642883,1.0,0.86,0.00031498026247371797
1584,0.31342098116874695,0.45168548822402954,1.0,0.85,0.00031498026247371797
1585,0.31340014934539795,0.4519544243812561,1.0,0.85,0.00031498026247371797
1586,0.31345248222351074,0.4522685706615448,1.0,0.85,0.00031498026247371797
1587,0.3134441375732422,0.452564001083374,1.0,0.85,0.00031498026247371797
1588,0.31356051564216614,0.45266810059547424,1.0,0.85,0.00031498026247371797
1589,0.31342533230781555,0.45279937982559204,1.0,0.85,0.00031498026247371797
1590,0.3135063946247101,0.452798455953598,1.0,0.85,0.00031498026247371797
1591,0.31341615319252014,0.45278674364089966,1.0,0.85,0.00031498026247371797
1592,0.3134540915489197,0.4527127742767334,1.0,0.85,0.00031498026247371797
1593,0.31346726417541504,0.4526648223400116,1.0,0.85,0.00031498026247371797
1594,0.3141968846321106,0.45179763436317444,1.0,0.86,0.00031498026247371797
1595,0.31339555978775024,0.45080265402793884,1.0,0.86,0.00031498026247371797
1596,0.31356289982795715,0.44968941807746887,1.0,0.86,0.00031498026247371797
1597,0.3133995532989502,0.448484867811203,1.0,0.86,0.00031498026247371797
1598,0.31351903080940247,0.4477214813232422,1.0,0.86,0.00031498026247371797
1599,0.31343427300453186,0.4471137225627899,1.0,0.86,0.00031498026247371797
1600,0.3135358691215515,0.44680407643318176,1.0,0.86,0.00031498026247371797
1601,0.31348347663879395,0.446914941072464,1.0,0.86,0.00031498026247371797
1602,0.31346407532691956,0.4472460150718689,1.0,0.86,0.00031498026247371797
1603,0.31344425678253174,0.44784557819366455,1.0,0.86,0.00031498026247371797
1604,0.31353408098220825,0.4486452043056488,1.0,0.86,0.00031498026247371797
1605,0.31362274289131165,0.44961073994636536,1.0,0.86,0.00031498026247371797
1606,0.3135724365711212,0.4507039785385132,1.0,0.85,0.00031498026247371797
1607,0.31351450085639954,0.4517195522785187,1.0,0.85,0.00031498026247371797
1608,0.31342244148254395,0.45253193378448486,1.0,0.85,0.00031498026247371797
1609,0.3134329319000244,0.4531985819339752,1.0,0.85,0.00031498026247371797
1610,0.31349173188209534,0.45379477739334106,1.0,0.85,0.00031498026247371797
1611,0.3134097158908844,0.4542321264743805,1.0,0.85,0.00031498026247371797
1612,0.3134378492832184,0.4545923173427582,1.0,0.85,0.00031498026247371797
1613,0.3134017586708069,0.45481055974960327,1.0,0.85,0.00031498026247371797
1614,0.31348058581352234,0.4549510180950165,1.0,0.85,0.00031498026247371797
1615,0.31343767046928406,0.4550155699253082,1.0,0.85,0.00031498026247371797
1616,0.31348100304603577,0.45497947931289673,1.0,0.85,0.00031498026247371797
1617,0.31343454122543335,0.4548863470554352,1.0,0.85,0.00031498026247371797
1618,0.31342604756355286,0.4547876715660095,1.0,0.85,0.00031498026247371797
1619,0.3134160041809082,0.4545951783657074,1.0,0.85,0.00031498026247371797
1620,0.3134424090385437,0.45449137687683105,1.0,0.85,0.00031498026247371797
1621,0.31349289417266846,0.45423343777656555,1.0,0.85,0.00031498026247371797
1622,0.3134469985961914,0.45394158363342285,1.0,0.85,0.00031498026247371797
1623,0.31346678733825684,0.4536815285682678,1.0,0.85,0.00031498026247371797
1624,0.31362223625183105,0.4531567096710205,1.0,0.86,0.00031498026247371797
1625,0.313435822725296,0.45281726121902466,1.0,0.86,0.00031498026247371797
1626,0.3133994936943054,0.4525042772293091,1.0,0.86,0.00031498026247371797
1627,0.313435822725296,0.4521232843399048,1.0,0.86,0.00031498026247371797
1628,0.31344911456108093,0.4517720341682434,1.0,0.86,0.00031498026247371797
1629,0.31343644857406616,0.45150038599967957,1.0,0.86,0.00031498026247371797
1630,0.3134346306324005,0.4512839615345001,1.0,0.86,0.00031498026247371797
1631,0.3133868873119354,0.45107537508010864,1.0,0.86,0.00031498026247371797
1632,0.3134348690509796,0.45083853602409363,1.0,0.86,0.00031498026247371797
1633,0.31340837478637695,0.4506126344203949,1.0,0.86,0.00031498026247371797
1634,0.3133949637413025,0.45040032267570496,1.0,0.86,0.00031498026247371797
1635,0.3134442865848541,0.4502177834510803,1.0,0.86,0.00031498026247371797
1636,0.31346917152404785,0.4502241015434265,1.0,0.86,0.00031498026247371797
1637,0.3136059045791626,0.45009589195251465,1.0,0.86,0.00031498026247371797
1638,0.31357869505882263,0.45013609528541565,1.0,0.86,0.00031498026247371797
1639,0.31340616941452026,0.449998676776886,1.0,0.86,0.00031498026247371797
1640,0.3134258985519409,0.45000725984573364,1.0,0.86,0.00031498026247371797
1641,0.31344321370124817,0.4499267339706421,1.0,0.86,0.00031498026247371797
1642,0.31343185901641846,0.44989949464797974,1.0,0.86,0.00031498026247371797
1643,0.31347915530204773,0.44985145330429077,1.0,0.86,0.00031498026247371797
1644,0.3134143352508545,0.44985637068748474,1.0,0.86,0.00031498026247371797
1645,0.31343457102775574,0.449906587600708,1.0,0.86,0.00031498026247371797
1646,0.31337210536003113,0.4499865770339966,1.0,0.86,0.00031498026247371797
1647,0.3134958744049072,0.4502149522304535,1.0,0.86,0.00031498026247371797
1648,0.3135055899620056,0.4503660500049591,1.0,0.86,0.00031498026247371797
1649,0.31341180205345154,0.45058825612068176,1.0,0.86,0.00031498026247371797
1650,0.31339311599731445,0.4507393538951874,1.0,0.86,0.00031498026247371797
1651,0.3134194016456604,0.4508723318576813,1.0,0.86,0.00031498026247371797
1652,0.3134489059448242,0.4509853422641754,1.0,0.86,0.00031498026247371797
1653,0.31350424885749817,0.45120689272880554,1.0,0.85,0.00031498026247371797
1654,0.3135170638561249,0.4512488842010498,1.0,0.86,0.00031498026247371797
1655,0.31349387764930725,0.45134207606315613,1.0,0.86,0.00031498026247371797
1656,0.313429594039917,0.45137539505958557,1.0,0.86,0.00031498026247371797
1657,0.3133961856365204,0.4514831602573395,1.0,0.85,0.00031498026247371797
1658,0.31347477436065674,0.45161372423171997,1.0,0.85,0.00031498026247371797
1659,0.31342068314552307,0.4518531560897827,1.0,0.85,0.00031498026247371797
1660,0.31338751316070557,0.4520135521888733,1.0,0.85,0.00031498026247371797
1661,0.31342849135398865,0.4520949423313141,1.0,0.85,0.00031498026247371797
1662,0.3135301470756531,0.4523521661758423,1.0,0.85,0.00031498026247371797
1663,0.31339702010154724,0.4523387849330902,1.0,0.85,0.00031498026247371797
1664,0.31337907910346985,0.45228710770606995,1.0,0.85,0.00031498026247371797
1665,0.3134669065475464,0.45225048065185547,1.0,0.85,0.00031498026247371797
1666,0.3133854568004608,0.4521265923976898,1.0,0.85,0.00031498026247371797
1667,0.313414990901947,0.4520285427570343,1.0,0.85,0.00031498026247371797
1668,0.31340309977531433,0.4519396722316742,1.0,0.85,0.00031498026247371797
1669,0.3134152889251709,0.45185279846191406,1.0,0.85,0.00031498026247371797
1670,0.313478022813797,0.45166146755218506,1.0,0.86,0.00031498026247371797
1671,0.3134244978427887,0.45149803161621094,1.0,0.86,0.00031498026247371797
1672,0.31340596079826355,0.45124995708465576,1.0,0.86,0.00031498026247371797
1673,0.313401460647583,0.451059490442276,1.0,0.86,0.00031498026247371797
1674,0.31340616941452026,0.45087170600891113,1.0,0.86,0.00031498026247371797
1675,0.3134244978427887,0.45066019892692566,1.0,0.86,0.00031498026247371797
1676,0.3134736716747284,0.450363427400589,1.0,0.86,0.00031498026247371797
1677,0.31351083517074585,0.4501720070838928,1.0,0.86,0.0002499999999999997
1678,0.3134474456310272,0.45003533363342285,1.0,0.86,0.0002499999999999997
1679,0.3134291172027588,0.4499037563800812,1.0,0.86,0.0002499999999999997
1680,0.3134387135505676,0.449834942817688,1.0,0.86,0.0002499999999999997
1681,0.31341829895973206,0.4497317373752594,1.0,0.86,0.0002499999999999997
1682,0.3134056329727173,0.4496799409389496,1.0,0.86,0.0002499999999999997
1683,0.31340664625167847,0.44965848326683044,1.0,0.86,0.0002499999999999997
1684,0.3134670555591583,0.4497129023075104,1.0,0.86,0.0002499999999999997
1685,0.31345048546791077,0.44972002506256104,1.0,0.86,0.0002499999999999997
1686,0.3133942186832428,0.4497039020061493,1.0,0.86,0.0002499999999999997
1687,0.3133991062641144,0.44970306754112244,1.0,0.86,0.0002499999999999997
1688,0.3134026527404785,0.44973984360694885,1.0,0.86,0.0002499999999999997
1689,0.31340476870536804,0.4497784674167633,1.0,0.86,0.0002499999999999997
1690,0.31338411569595337,0.449756383895874,1.0,0.86,0.0002499999999999997
1691,0.31342828273773193,0.44976651668548584,1.0,0.86,0.0002499999999999997
1692,0.3134210705757141,0.4497791528701782,1.0,0.86,0.0002499999999999997
1693,0.313507080078125,0.45007088780403137,1.0,0.86,0.0002499999999999997
1694,0.31340134143829346,0.4502515494823456,1.0,0.86,0.0002499999999999997
1695,0.31353771686553955,0.450458288192749,1.0,0.86,0.0002499999999999997
1696,0.31345072388648987,0.450773149728775,1.0,0.86,0.0002499999999999997
1697,0.313529908657074,0.4509730935096741,1.0,0.86,0.0002499999999999997
1698,0.3134002387523651,0.4511195421218872,1.0,0.86,0.0002499999999999997
1699,0.31342053413391113,0.45117828249931335,1.0,0.86,0.0002499999999999997
1700,0.3134019374847412,0.4512494206428528,1.0,0.86,0.0002499999999999997
1701,0.3134439289569855,0.4512884020805359,1.0,0.86,0.0002499999999999997
1702,0.31337448954582214,0.4513112008571625,1.0,0.86,0.0002499999999999997
1703,0.31340542435646057,0.45129722356796265,1.0,0.86,0.0002499999999999997
1704,0.3134085536003113,0.45128798484802246,1.0,0.86,0.0002499999999999997
1705,0.31474795937538147,0.44976019859313965,1.0,0.86,0.0002499999999999997
1706,0.31336545944213867,0.44782742857933044,1.0,0.86,0.0002499999999999997
1707,0.31342777609825134,0.4458044469356537,1.0,0.86,0.0002499999999999997
1708,0.31351983547210693,0.4440978169441223,1.0,0.86,0.0002499999999999997
1709,0.31350812315940857,0.442636102437973,1.0,0.87,0.0002499999999999997
1710,0.3136554956436157,0.44186100363731384,1.0,0.87,0.0002499999999999997
1711,0.3134547472000122,0.4414006769657135,1.0,0.87,0.0002499999999999997
1712,0.31369343400001526,0.44141608476638794,1.0,0.88,0.0002499999999999997
1713,0.3136446475982666,0.4420754313468933,1.0,0.88,0.0002499999999999997
1714,0.31348198652267456,0.44313907623291016,1.0,0.88,0.0002499999999999997
1715,0.31350356340408325,0.4444754719734192,1.0,0.87,0.0002499999999999997
1716,0.31350159645080566,0.44607770442962646,1.0,0.87,0.0002499999999999997
1717,0.3134813606739044,0.44771578907966614,1.0,0.85,0.0002499999999999997
1718,0.3134676218032837,0.4493636190891266,1.0,0.85,0.0002499999999999997
1719,0.3134192228317261,0.4508788287639618,1.0,0.85,0.0002499999999999997
1720,0.31357163190841675,0.45204153656959534,1.0,0.85,0.0002499999999999997
1721,0.3134356439113617,0.4529721736907959,1.0,0.85,0.0002499999999999997
1722,0.3134625554084778,0.45363137125968933,1.0,0.85,0.0002499999999999997
1723,0.3134196400642395,0.45411163568496704,1.0,0.85,0.0002499999999999997
1724,0.31345343589782715,0.4543459713459015,1.0,0.85,0.0002499999999999997
1725,0.31342583894729614,0.4546504616737366,1.0,0.85,0.0002499999999999997
1726,0.31344521045684814,0.4547463357448578,1.0,0.85,0.0002499999999999997
1727,0.31337058544158936,0.4547453224658966,1.0,0.85,0.0002499999999999997
1728,0.3134134113788605,0.4547191858291626,1.0,0.85,0.0002499999999999997
1729,0.3134762644767761,0.4545862674713135,1.0,0.85,0.0002499999999999997
1730,0.3134159743785858,0.4544711410999298,1.0,0.85,0.0002499999999999997
1731,0.3134573996067047,0.4543026089668274,1.0,0.85,0.0002499999999999997
1732,0.3134428858757019,0.45408040285110474,1.0,0.85,0.0002499999999999997
1733,0.31348931789398193,0.45384299755096436,1.0,0.85,0.0002499999999999997
1734,0.31344860792160034,0.45355546474456787,1.0,0.85,0.0002499999999999997
1735,0.3133954703807831,0.45330294966697693,1.0,0.85,0.0002499999999999997
1736,0.31339454650878906,0.45299232006073,1.0,0.85,0.0002499999999999997
1737,0.3134734332561493,0.4526396691799164,1.0,0.85,0.0002499999999999997
1738,0.313397616147995,0.4523075819015503,1.0,0.85,0.0002499999999999997
1739,0.31339672207832336,0.45199429988861084,1.0,0.85,0.0002499999999999997
1740,0.3135148286819458,0.45166438817977905,1.0,0.86,0.0002499999999999997
1741,0.3137931823730469,0.4511190354824066,1.0,0.86,0.0002499999999999997
1742,0.31343966722488403,0.45066946744918823,1.0,0.86,0.0002499999999999997
1743,0.3134046196937561,0.45010578632354736,1.0,0.86,0.0002499999999999997
1744,0.3134481906890869,0.4496041536331177,1.0,0.86,0.0002499999999999997
1745,0.3134056329727173,0.4491439461708069,1.0,0.86,0.0002499999999999997
1746,0.31368207931518555,0.44848883152008057,1.0,0.86,0.0002499999999999997
1747,0.3134022057056427,0.4478788375854492,1.0,0.86,0.0002499999999999997
1748,0.3134065568447113,0.44743335247039795,1.0,0.86,0.0002499999999999997
1749,0.3134685456752777,0.4471295177936554,1.0,0.86,0.0002499999999999997
1750,0.31348809599876404,0.44725939631462097,1.0,0.86,0.0002499999999999997
1751,0.3134613037109375,0.4474433958530426,1.0,0.86,0.0002499999999999997
1752,0.3135027587413788,0.4479137659072876,1.0,0.86,0.0002499999999999997
1753,0.31345057487487793,0.4484820067882538,1.0,0.86,0.0002499999999999997
1754,0.31343334913253784,0.4490993618965149,1.0,0.86,0.0002499999999999997
1755,0.31345662474632263,0.449735552072525,1.0,0.86,0.0002499999999999997
1756,0.31341439485549927,0.4503765106201172,1.0,0.86,0.0002499999999999997
1757,0.3134160339832306,0.45092105865478516,1.0,0.86,0.0002499999999999997
1758,0.31347981095314026,0.4514079689979553,1.0,0.85,0.0002499999999999997
1759,0.3134303390979767,0.4517996311187744,1.0,0.85,0.0002499999999999997
1760,0.3134268820285797,0.45213741064071655,1.0,0.85,0.0002499999999999997
1761,0.31346434354782104,0.4523469805717468,1.0,0.85,0.0002499999999999997
1762,0.3134266138076782,0.45256495475769043,1.0,0.85,0.0002499999999999997
1763,0.31338798999786377,0.4526607394218445,1.0,0.85,0.0002499999999999997
1764,0.3134042024612427,0.45276299118995667,1.0,0.85,0.0002499999999999997
1765,0.31349432468414307,0.4528478682041168,1.0,0.85,0.0002499999999999997
1766,0.3134206235408783,0.45290157198905945,1.0,0.85,0.0002499999999999997
1767,0.3135037422180176,0.4529384672641754,1.0,0.85,0.0002499999999999997
1768,0.31340453028678894,0.4529843032360077,1.0,0.85,0.0002499999999999997
1769,0.31341788172721863,0.45292022824287415,1.0,0.85,0.0002499999999999997
1770,0.3133980929851532,0.45286017656326294,1.0,0.85,0.0002499999999999997
1771,0.31343570351600647,0.45281270146369934,1.0,0.85,0.0002499999999999997
1772,0.31339573860168457,0.4527483284473419,1.0,0.85,0.0002499999999999997
1773,0.3134876489639282,0.452597975730896,1.0,0.85,0.0002499999999999997
1774,0.3134046494960785,0.4524461030960083,1.0,0.85,0.0002499999999999997
1775,0.3134298622608185,0.4523802101612091,1.0,0.85,0.0002499999999999997
1776,0.31343019008636475,0.45222437381744385,1.0,0.85,0.0002499999999999997
1777,0.31344518065452576,0.45196011662483215,1.0,0.86,0.0002499999999999997
1778,0.31343579292297363,0.45180565118789673,1.0,0.86,0.0002499999999999997
1779,0.313524454832077,0.4515649378299713,1.0,0.86,0.0002499999999999997
1780,0.31338509917259216,0.45130372047424316,1.0,0.86,0.0002499999999999997
1781,0.3134150505065918,0.4511563777923584,1.0,0.86,0.0002499999999999997
1782,0.31356367468833923,0.45071426033973694,1.0,0.86,0.0002499999999999997
1783,0.3133905529975891,0.45038726925849915,1.0,0.86,0.0002499999999999997
1784,0.3133949041366577,0.4499249756336212,1.0,0.86,0.0002499999999999997
1785,0.3134104907512665,0.44944366812705994,1.0,0.86,0.0002499999999999997
1786,0.31340980529785156,0.44910499453544617,1.0,0.86,0.0002499999999999997
1787,0.3133768141269684,0.44885972142219543,1.0,0.86,0.0002499999999999997
1788,0.3134099841117859,0.4486348032951355,1.0,0.86,0.0002499999999999997
1789,0.31347283720970154,0.4484795331954956,1.0,0.86,0.0002499999999999997
1790,0.31343796849250793,0.4483923614025116,1.0,0.86,0.0002499999999999997
1791,0.31337782740592957,0.44849255681037903,1.0,0.86,0.0002499999999999997
1792,0.31345507502555847,0.4485115706920624,1.0,0.86,0.0002499999999999997
1793,0.31348904967308044,0.44877609610557556,1.0,0.86,0.0002499999999999997
1794,0.3134232461452484,0.4490344226360321,1.0,0.86,0.0002499999999999997
1795,0.3134150505065918,0.4493151009082794,1.0,0.86,0.0002499999999999997
1796,0.31338948011398315,0.44957026839256287,1.0,0.86,0.0002499999999999997
1797,0.3133833408355713,0.4497842788696289,1.0,0.86,0.0002499999999999997
1798,0.313398540019989,0.4500347971916199,1.0,0.86,0.0002499999999999997
1799,0.3135357201099396,0.4501692056655884,1.0,0.86,0.0002499999999999997
1800,0.3137208819389343,0.4499242901802063,1.0,0.86,0.0002499999999999997
1801,0.3134276270866394,0.44982218742370605,1.0,0.86,0.0002499999999999997
1802,0.3134150207042694,0.44975167512893677,1.0,0.86,0.0002499999999999997
1803,0.31341907382011414,0.44970378279685974,1.0,0.86,0.0002499999999999997
1804,0.31343942880630493,0.44962775707244873,1.0,0.86,0.0002499999999999997
1805,0.31339749693870544,0.4496111273765564,1.0,0.86,0.0002499999999999997
1806,0.31338801980018616,0.44960930943489075,1.0,0.86,0.0002499999999999997
1807,0.31342849135398865,0.44965022802352905,1.0,0.86,0.00019842513149602464
1808,0.3134506344795227,0.4497356116771698,1.0,0.85,0.00019842513149602464
1809,0.3134441077709198,0.44965606927871704,1.0,0.86,0.00019842513149602464
1810,0.31343695521354675,0.4497002363204956,1.0,0.86,0.00019842513149602464
1811,0.3133927583694458,0.4497826099395752,1.0,0.85,0.00019842513149602464
1812,0.31339558959007263,0.449848473072052,1.0,0.85,0.00019842513149602464
1813,0.31337770819664,0.4499318599700928,1.0,0.86,0.00019842513149602464
1814,0.31340086460113525,0.4500008821487427,1.0,0.85,0.00019842513149602464
1815,0.31346333026885986,0.4500691890716553,1.0,0.85,0.00019842513149602464
1816,0.3134162724018097,0.4501573145389557,1.0,0.85,0.00019842513149602464
1817,0.31341552734375,0.450259804725647,1.0,0.85,0.00019842513149602464
1818,0.31342121958732605,0.4503324627876282,1.0,0.85,0.00019842513149602464
1819,0.3135088086128235,0.4504367411136627,1.0,0.85,0.00019842513149602464
1820,0.3134808838367462,0.4505559504032135,1.0,0.85,0.00019842513149602464
1821,0.3134365975856781,0.45063483715057373,1.0,0.85,0.00019842513149602464
1822,0.31347811222076416,0.45074352622032166,1.0,0.85,0.00019842513149602464
1823,0.313393771648407,0.4508109390735626,1.0,0.85,0.00019842513149602464
1824,0.3134123682975769,0.45081955194473267,1.0,0.85,0.00019842513149602464
1825,0.3133964538574219,0.45083367824554443,1.0,0.85,0.00019842513149602464
