,train loss,val loss,train acc,val acc,lr
0,0.6361662745475769,0.6493569016456604,0.69,0.64,0.001
1,0.5738989114761353,0.600598156452179,0.73,0.66,0.001
2,0.54644376039505,0.5799176692962646,0.81,0.68,0.001
3,0.5330427289009094,0.5646278858184814,0.8,0.74,0.001
4,0.5201051235198975,0.5584475994110107,0.81,0.77,0.001
5,0.515752911567688,0.5517272353172302,0.8,0.77,0.001
6,0.5069639086723328,0.5476750731468201,0.8,0.77,0.001
7,0.5016032457351685,0.5442865490913391,0.82,0.77,0.001
8,0.49671730399131775,0.5401670336723328,0.82,0.76,0.001
9,0.491354763507843,0.5362551808357239,0.81,0.76,0.001
10,0.4833592474460602,0.5315359830856323,0.84,0.75,0.001
11,0.47738128900527954,0.5266723036766052,0.85,0.76,0.001
12,0.4729299545288086,0.5215280652046204,0.87,0.75,0.001
13,0.4699374735355377,0.5166489481925964,0.87,0.75,0.001
14,0.46441879868507385,0.5127273201942444,0.88,0.76,0.001
15,0.45806658267974854,0.5093262195587158,0.88,0.78,0.001
16,0.45289257168769836,0.5062416195869446,0.9,0.79,0.001
17,0.4464403986930847,0.5035218000411987,0.91,0.8,0.001
18,0.4407426416873932,0.5009447336196899,0.9,0.8,0.001
19,0.4399700164794922,0.4985921084880829,0.9,0.8,0.001
20,0.43406757712364197,0.49736130237579346,0.92,0.8,0.001
21,0.4299907982349396,0.49555572867393494,0.92,0.8,0.001
22,0.4217105209827423,0.49219998717308044,0.92,0.8,0.001
23,0.4182959496974945,0.491712749004364,0.91,0.81,0.001
24,0.416157990694046,0.4913922846317291,0.94,0.81,0.001
25,0.40945136547088623,0.48860159516334534,0.95,0.81,0.001
26,0.4063296616077423,0.48495715856552124,0.96,0.82,0.001
27,0.40138378739356995,0.48371684551239014,0.96,0.84,0.001
28,0.3971607983112335,0.48147475719451904,0.96,0.83,0.001
29,0.3901205062866211,0.47811561822891235,0.96,0.84,0.001
30,0.39059293270111084,0.4724064767360687,0.96,0.85,0.001
31,0.38483813405036926,0.4681437015533447,0.96,0.85,0.001
32,0.37873730063438416,0.4702279269695282,0.96,0.84,0.001
33,0.38034695386886597,0.46728694438934326,0.96,0.84,0.001
34,0.37209782004356384,0.4633418023586273,0.96,0.87,0.001
35,0.37331339716911316,0.4636507034301758,0.96,0.85,0.001
36,0.3668411672115326,0.46845775842666626,0.97,0.85,0.001
37,0.36620470881462097,0.4643005430698395,0.97,0.87,0.001
38,0.36521247029304504,0.4605412781238556,0.96,0.83,0.001
39,0.3630720376968384,0.5055617690086365,0.97,0.78,0.001
40,0.358377605676651,0.45182204246520996,0.98,0.83,0.001
41,0.35503193736076355,0.465765118598938,0.98,0.86,0.001
42,0.35321590304374695,0.4610205888748169,0.98,0.85,0.001
43,0.35505932569503784,0.4804707467556,0.98,0.84,0.001
44,0.3513900339603424,0.44956082105636597,0.98,0.85,0.001
45,0.3494015038013458,0.45112428069114685,0.98,0.85,0.001
46,0.34484681487083435,0.4552307426929474,0.98,0.85,0.001
47,0.3443719148635864,0.45724475383758545,0.98,0.85,0.001
48,0.34184280037879944,0.45343905687332153,0.98,0.85,0.001
49,0.3403093218803406,0.4537135362625122,0.99,0.84,0.001
50,0.3407706320285797,0.46935775876045227,0.99,0.83,0.001
51,0.3417542278766632,0.48029446601867676,0.98,0.82,0.001
52,0.34524545073509216,0.6064631938934326,0.99,0.67,0.001
53,0.3406892716884613,0.47877055406570435,0.98,0.85,0.001
54,0.3486855626106262,0.6338261961936951,0.98,0.66,0.001
55,0.3406316041946411,0.5187956094741821,0.99,0.74,0.001
56,0.3420100808143616,0.4510785639286041,0.99,0.88,0.001
57,0.33724507689476013,0.5337563157081604,0.99,0.77,0.001
58,0.33869799971580505,0.4770317077636719,0.99,0.86,0.001
59,0.3393075466156006,0.47329795360565186,0.99,0.83,0.001
60,0.3354203701019287,0.5070971250534058,0.99,0.77,0.001
61,0.3356000781059265,0.4659562408924103,0.99,0.85,0.001
62,0.3326556384563446,0.4411425292491913,0.99,0.87,0.001
63,0.33397623896598816,0.47832104563713074,0.99,0.83,0.001
64,0.33131736516952515,0.5000327229499817,0.99,0.8,0.001
65,0.33241233229637146,0.45339661836624146,0.99,0.85,0.001
66,0.33072662353515625,0.49574461579322815,0.99,0.8,0.001
67,0.329494446516037,0.5259659886360168,0.99,0.76,0.001
68,0.327805757522583,0.4842168688774109,0.99,0.79,0.001
69,0.3276587426662445,0.4376572072505951,0.99,0.86,0.001
70,0.3275764584541321,0.4459783136844635,0.99,0.89,0.001
71,0.3251537084579468,0.4895320534706116,0.99,0.82,0.001
72,0.32250839471817017,0.44135499000549316,1.0,0.88,0.001
73,0.3240983188152313,0.49863743782043457,1.0,0.81,0.001
74,0.32164523005485535,0.5241943597793579,1.0,0.78,0.001
75,0.3212442100048065,0.47333598136901855,1.0,0.83,0.001
76,0.320809543132782,0.43333104252815247,1.0,0.87,0.001
77,0.3206338584423065,0.4329981207847595,1.0,0.88,0.001
78,0.319606751203537,0.44982513785362244,1.0,0.87,0.001
79,0.318688303232193,0.43194010853767395,1.0,0.87,0.001
80,0.31873399019241333,0.4421348571777344,1.0,0.87,0.001
81,0.31858909130096436,0.4801202118396759,1.0,0.82,0.001
82,0.3176541328430176,0.47684410214424133,1.0,0.83,0.001
83,0.3180527985095978,0.4304872155189514,1.0,0.87,0.001
84,0.3170969486236572,0.4279029369354248,1.0,0.88,0.001
85,0.31684502959251404,0.4353007972240448,1.0,0.88,0.001
86,0.31719914078712463,0.434605211019516,1.0,0.88,0.001
87,0.3164772391319275,0.4280679225921631,1.0,0.89,0.001
88,0.31665709614753723,0.4610237181186676,1.0,0.83,0.001
89,0.31601208448410034,0.4569598138332367,1.0,0.84,0.001
90,0.3158881664276123,0.4322248697280884,1.0,0.89,0.001
91,0.31593745946884155,0.42422202229499817,1.0,0.89,0.001
92,0.3160252273082733,0.43104541301727295,1.0,0.87,0.001
93,0.31526461243629456,0.43470168113708496,1.0,0.86,0.001
94,0.31542497873306274,0.4335762858390808,1.0,0.86,0.001
95,0.31551945209503174,0.434509813785553,1.0,0.88,0.001
96,0.3152737021446228,0.43351033329963684,1.0,0.89,0.001
97,0.31505087018013,0.4284241199493408,1.0,0.89,0.001
98,0.31521815061569214,0.42717769742012024,1.0,0.88,0.001
99,0.3150783181190491,0.42633122205734253,1.0,0.89,0.001
100,0.31489524245262146,0.42754417657852173,1.0,0.88,0.001
101,0.3148922026157379,0.43270501494407654,1.0,0.86,0.001
102,0.31492850184440613,0.43231144547462463,1.0,0.86,0.001
103,0.31471166014671326,0.4316638112068176,1.0,0.89,0.001
104,0.31463077664375305,0.43052077293395996,1.0,0.89,0.001
105,0.31467485427856445,0.4334437847137451,1.0,0.89,0.001
106,0.3147145211696625,0.4339294731616974,1.0,0.87,0.001
107,0.3145141303539276,0.4337817132472992,1.0,0.88,0.001
108,0.3144237697124481,0.43333178758621216,1.0,0.88,0.001
109,0.31438812613487244,0.4337916076183319,1.0,0.88,0.001
110,0.31430819630622864,0.43256428837776184,1.0,0.87,0.001
111,0.31456148624420166,0.4331745505332947,1.0,0.88,0.001
112,0.3143502175807953,0.436336874961853,1.0,0.88,0.001
113,0.31441569328308105,0.4384809136390686,1.0,0.87,0.001
114,0.3144112825393677,0.4364704489707947,1.0,0.87,0.001
115,0.3144195079803467,0.43243685364723206,1.0,0.89,0.001
116,0.314299613237381,0.4318402111530304,1.0,0.88,0.001
117,0.31427088379859924,0.4310389459133148,1.0,0.88,0.001
118,0.31440651416778564,0.4293402135372162,1.0,0.88,0.001
119,0.31419050693511963,0.4296034574508667,1.0,0.89,0.001
120,0.31432870030403137,0.4319326877593994,1.0,0.88,0.001
121,0.31424960494041443,0.4340682625770569,1.0,0.88,0.001
122,0.31416264176368713,0.43279534578323364,1.0,0.87,0.001
123,0.31411731243133545,0.43128639459609985,1.0,0.88,0.001
124,0.31400397419929504,0.4288836419582367,1.0,0.88,0.001
125,0.3142373859882355,0.427122563123703,1.0,0.88,0.001
126,0.31411683559417725,0.42678317427635193,1.0,0.88,0.001
127,0.3141627609729767,0.42955857515335083,1.0,0.88,0.001
128,0.3140442967414856,0.4304142892360687,1.0,0.89,0.001
129,0.3140701651573181,0.4298510253429413,1.0,0.89,0.001
130,0.314093679189682,0.4284132122993469,1.0,0.88,0.001
131,0.31400054693222046,0.42791175842285156,1.0,0.89,0.001
132,0.31397849321365356,0.4279264509677887,1.0,0.89,0.001
133,0.3140864670276642,0.42884770035743713,1.0,0.89,0.001
134,0.3139837980270386,0.4296649694442749,1.0,0.89,0.001
135,0.3139977753162384,0.43054258823394775,1.0,0.89,0.001
136,0.31392669677734375,0.43034613132476807,1.0,0.88,0.001
137,0.3139256238937378,0.430923730134964,1.0,0.89,0.001
138,0.3140397369861603,0.42821231484413147,1.0,0.88,0.001
139,0.31393200159072876,0.4270016551017761,1.0,0.89,0.001
140,0.3139033317565918,0.4255983829498291,1.0,0.89,0.001
141,0.3139989972114563,0.4266032874584198,1.0,0.89,0.001
142,0.31418871879577637,0.4293166697025299,1.0,0.9,0.001
143,0.3140791952610016,0.4320017993450165,1.0,0.89,0.001
144,0.313967764377594,0.43283477425575256,1.0,0.9,0.001
145,0.3139150142669678,0.43242737650871277,1.0,0.89,0.001
146,0.3138798475265503,0.4318764805793762,1.0,0.89,0.001
147,0.3139849603176117,0.43028804659843445,1.0,0.88,0.001
148,0.31384506821632385,0.43071573972702026,1.0,0.88,0.001
149,0.31400781869888306,0.42625850439071655,1.0,0.89,0.001
150,0.3138747811317444,0.4238165318965912,1.0,0.9,0.001
151,0.3140217661857605,0.4287129342556,1.0,0.9,0.001
152,0.3138219714164734,0.4329116940498352,1.0,0.88,0.001
153,0.313931405544281,0.43341004848480225,1.0,0.87,0.001
154,0.31377583742141724,0.4316188395023346,1.0,0.88,0.001
155,0.313813716173172,0.42847979068756104,1.0,0.89,0.001
156,0.31397101283073425,0.42793339490890503,1.0,0.89,0.001
157,0.3137645721435547,0.42859095335006714,1.0,0.88,0.001
158,0.31383049488067627,0.42955994606018066,1.0,0.89,0.001
159,0.31385260820388794,0.4295586347579956,1.0,0.89,0.001
160,0.313778281211853,0.42995333671569824,1.0,0.89,0.001
161,0.3137218952178955,0.4300379157066345,1.0,0.88,0.001
162,0.3137577176094055,0.4290829598903656,1.0,0.88,0.001
163,0.31390637159347534,0.4267839193344116,1.0,0.88,0.001
164,0.31375962495803833,0.4276048243045807,1.0,0.88,0.001
165,0.3138171434402466,0.42920729517936707,1.0,0.9,0.001
166,0.3137572407722473,0.4317249357700348,1.0,0.89,0.001
167,0.3137825131416321,0.43223336338996887,1.0,0.88,0.001
168,0.31376343965530396,0.4327196180820465,1.0,0.87,0.001
169,0.31374797224998474,0.4322543740272522,1.0,0.88,0.001
170,0.3137252926826477,0.4314653277397156,1.0,0.88,0.001
171,0.3137688934803009,0.43014541268348694,1.0,0.88,0.001
172,0.313785195350647,0.42863166332244873,1.0,0.88,0.001
173,0.31376925110816956,0.4288850724697113,1.0,0.9,0.001
174,0.313691645860672,0.43013229966163635,1.0,0.89,0.001
175,0.31368646025657654,0.43075549602508545,1.0,0.89,0.001
176,0.31369319558143616,0.43182703852653503,1.0,0.87,0.001
177,0.31369805335998535,0.43108069896698,1.0,0.87,0.001
178,0.313707172870636,0.4294055998325348,1.0,0.88,0.001
179,0.3137093782424927,0.42903241515159607,1.0,0.88,0.001
180,0.3137441575527191,0.430139422416687,1.0,0.88,0.001
181,0.31368327140808105,0.4326034188270569,1.0,0.88,0.001
182,0.3137536346912384,0.4360092580318451,1.0,0.89,0.001
183,0.3136879801750183,0.434828519821167,1.0,0.87,0.001
184,0.31371116638183594,0.43178844451904297,1.0,0.88,0.001
185,0.31374111771583557,0.4293842613697052,1.0,0.89,0.001
186,0.3136364817619324,0.4276191294193268,1.0,0.89,0.001
187,0.3137156367301941,0.42782774567604065,1.0,0.88,0.001
188,0.31364524364471436,0.4298880100250244,1.0,0.88,0.001
189,0.3136383593082428,0.4321690499782562,1.0,0.89,0.001
190,0.3136177361011505,0.4330168068408966,1.0,0.87,0.001
191,0.31360188126564026,0.43249401450157166,1.0,0.85,0.001
192,0.31367167830467224,0.43163585662841797,1.0,0.87,0.001
193,0.31361955404281616,0.43097183108329773,1.0,0.88,0.001
194,0.31365156173706055,0.4301426410675049,1.0,0.88,0.001
195,0.31368839740753174,0.4272487759590149,1.0,0.88,0.001
196,0.31364741921424866,0.42685484886169434,1.0,0.88,0.001
197,0.3136245608329773,0.4291403591632843,1.0,0.88,0.001
198,0.3136250972747803,0.43199631571769714,1.0,0.88,0.001
199,0.31360551714897156,0.4344179034233093,1.0,0.87,0.001
200,0.31367814540863037,0.4344884157180786,1.0,0.87,0.001
201,0.3136695623397827,0.4324757754802704,1.0,0.87,0.001
202,0.3135850429534912,0.43022915720939636,1.0,0.88,0.001
203,0.31358063220977783,0.42904728651046753,1.0,0.88,0.001
204,0.3137909471988678,0.42741599678993225,1.0,0.88,0.001
205,0.31363725662231445,0.4282388687133789,1.0,0.88,0.001
206,0.3136225640773773,0.43264496326446533,1.0,0.88,0.001
207,0.3136627674102783,0.43747401237487793,1.0,0.88,0.001
208,0.3136442005634308,0.4376422166824341,1.0,0.86,0.001
209,0.31365635991096497,0.43489208817481995,1.0,0.88,0.001
210,0.3136080801486969,0.43154507875442505,1.0,0.88,0.001
211,0.31362709403038025,0.4289426803588867,1.0,0.89,0.001
212,0.3135930001735687,0.42734038829803467,1.0,0.89,0.001
213,0.3135761618614197,0.4272000789642334,1.0,0.88,0.001
214,0.3135753571987152,0.428171843290329,1.0,0.88,0.001
215,0.3135756254196167,0.42991843819618225,1.0,0.88,0.001
216,0.3135879337787628,0.4319775402545929,1.0,0.87,0.001
217,0.3135705590248108,0.4351451098918915,1.0,0.87,0.001
218,0.31359994411468506,0.43740954995155334,1.0,0.87,0.001
219,0.3135722875595093,0.4383821189403534,1.0,0.88,0.001
220,0.3136102259159088,0.4375864267349243,1.0,0.87,0.001
221,0.3135765492916107,0.4359067976474762,1.0,0.87,0.001
222,0.3135434687137604,0.43465015292167664,1.0,0.88,0.001
223,0.3135208189487457,0.43428534269332886,1.0,0.88,0.001
224,0.3135724365711212,0.436107873916626,1.0,0.87,0.001
225,0.31352293491363525,0.43683677911758423,1.0,0.87,0.001
226,0.31358587741851807,0.43521422147750854,1.0,0.87,0.001
227,0.31353577971458435,0.4328029155731201,1.0,0.87,0.001
228,0.31357744336128235,0.42993924021720886,1.0,0.88,0.001
229,0.31354963779449463,0.42991724610328674,1.0,0.88,0.001
230,0.3135439157485962,0.43081924319267273,1.0,0.89,0.001
231,0.3135371804237366,0.43001750111579895,1.0,0.88,0.001
232,0.3135465383529663,0.43048495054244995,1.0,0.88,0.001
233,0.3135600984096527,0.4330123960971832,1.0,0.87,0.001
234,0.31356948614120483,0.43434569239616394,1.0,0.88,0.001
235,0.3135213255882263,0.43342122435569763,1.0,0.88,0.001
236,0.3135327398777008,0.432478666305542,1.0,0.87,0.001
237,0.3135036528110504,0.432745099067688,1.0,0.88,0.001
238,0.3135041892528534,0.43371841311454773,1.0,0.88,0.001
239,0.31350618600845337,0.43566885590553284,1.0,0.88,0.001
240,0.3135266900062561,0.4371347427368164,1.0,0.86,0.001
241,0.31353145837783813,0.4345119595527649,1.0,0.87,0.001
242,0.313585489988327,0.43299829959869385,1.0,0.87,0.001
243,0.31353795528411865,0.4333392083644867,1.0,0.87,0.001
244,0.3135180175304413,0.43351349234580994,1.0,0.87,0.001
245,0.313483327627182,0.43283188343048096,1.0,0.87,0.001
246,0.31348809599876404,0.4308927059173584,1.0,0.88,0.001
247,0.3135305345058441,0.4294221103191376,1.0,0.88,0.001
248,0.3135361969470978,0.4307275116443634,1.0,0.88,0.001
249,0.3135024309158325,0.4307549297809601,1.0,0.88,0.001
250,0.3134726583957672,0.4301994740962982,1.0,0.88,0.001
251,0.3134883642196655,0.42903557419776917,1.0,0.88,0.001
252,0.31349170207977295,0.4274483621120453,1.0,0.88,0.001
253,0.3135063052177429,0.42641791701316833,1.0,0.88,0.001
254,0.3135082423686981,0.427511066198349,1.0,0.89,0.001
255,0.3134847581386566,0.42796286940574646,1.0,0.88,0.001
256,0.3134998381137848,0.428112268447876,1.0,0.88,0.001
257,0.31347644329071045,0.42885032296180725,1.0,0.88,0.001
258,0.3134760558605194,0.42956870794296265,1.0,0.88,0.001
259,0.31350380182266235,0.4302546977996826,1.0,0.88,0.001
260,0.31350088119506836,0.43121621012687683,1.0,0.88,0.001
261,0.31346338987350464,0.4332066476345062,1.0,0.88,0.001
262,0.31347692012786865,0.43302810192108154,1.0,0.88,0.001
263,0.31348085403442383,0.43330687284469604,1.0,0.88,0.001
264,0.31346261501312256,0.43311062455177307,1.0,0.88,0.001
265,0.3134390115737915,0.43329083919525146,1.0,0.87,0.001
266,0.3134517967700958,0.4331108331680298,1.0,0.87,0.001
267,0.3134671151638031,0.43290627002716064,1.0,0.88,0.001
268,0.3134634792804718,0.43360546231269836,1.0,0.88,0.001
269,0.31346023082733154,0.43433815240859985,1.0,0.87,0.001
270,0.3134959042072296,0.43383875489234924,1.0,0.87,0.001
271,0.3134688138961792,0.4338988959789276,1.0,0.87,0.001
272,0.3134760856628418,0.43310782313346863,1.0,0.88,0.001
273,0.313468337059021,0.4321459233760834,1.0,0.88,0.001
274,0.31348586082458496,0.4314653277397156,1.0,0.88,0.001
275,0.31347236037254333,0.43054258823394775,1.0,0.88,0.001
276,0.3134390711784363,0.4298924207687378,1.0,0.88,0.001
277,0.3134848475456238,0.4298163950443268,1.0,0.88,0.001
278,0.31343138217926025,0.4304913580417633,1.0,0.88,0.001
279,0.31348714232444763,0.43215352296829224,1.0,0.87,0.001
280,0.3134770691394806,0.4324684143066406,1.0,0.88,0.001
281,0.3134714961051941,0.43372929096221924,1.0,0.87,0.001
282,0.3134245276451111,0.43453818559646606,1.0,0.88,0.001
283,0.3134206235408783,0.4348517954349518,1.0,0.88,0.001
284,0.3134332597255707,0.4344874918460846,1.0,0.88,0.001
285,0.31345096230506897,0.4340876638889313,1.0,0.87,0.001
286,0.31342774629592896,0.43427398800849915,1.0,0.88,0.001
287,0.3134315609931946,0.43582993745803833,1.0,0.87,0.001
288,0.31344205141067505,0.43828094005584717,1.0,0.87,0.001
289,0.31344282627105713,0.437612384557724,1.0,0.87,0.001
290,0.31342801451683044,0.43585360050201416,1.0,0.87,0.001
291,0.3134857714176178,0.43532776832580566,1.0,0.87,0.001
292,0.31346210837364197,0.43435138463974,1.0,0.88,0.001
293,0.31341269612312317,0.43381378054618835,1.0,0.88,0.001
294,0.31342971324920654,0.4333019256591797,1.0,0.88,0.001
295,0.3134407103061676,0.43313801288604736,1.0,0.88,0.001
296,0.3134795129299164,0.43476924300193787,1.0,0.87,0.001
297,0.31341487169265747,0.43685299158096313,1.0,0.86,0.001
298,0.31342774629592896,0.4370774030685425,1.0,0.86,0.001
299,0.313407301902771,0.4364372491836548,1.0,0.87,0.001
300,0.31346848607063293,0.4338890016078949,1.0,0.87,0.001
301,0.3134220242500305,0.4319140613079071,1.0,0.87,0.001
302,0.3134381175041199,0.4319581091403961,1.0,0.87,0.001
303,0.31344279646873474,0.4324294328689575,1.0,0.87,0.001
304,0.31342437863349915,0.4326281249523163,1.0,0.88,0.001
305,0.313429594039917,0.43337327241897583,1.0,0.88,0.001
306,0.3134130537509918,0.43440333008766174,1.0,0.87,0.001
307,0.3134165108203888,0.4352637827396393,1.0,0.87,0.001
308,0.3134356737136841,0.4358799457550049,1.0,0.86,0.001
309,0.31341928243637085,0.4361472427845001,1.0,0.86,0.001
310,0.3133876919746399,0.4358210265636444,1.0,0.86,0.001
311,0.31341689825057983,0.4349832534790039,1.0,0.88,0.001
312,0.31342050433158875,0.4339931905269623,1.0,0.87,0.001
313,0.31344151496887207,0.43317925930023193,1.0,0.87,0.001
314,0.31342586874961853,0.4333403408527374,1.0,0.87,0.001
315,0.31342649459838867,0.4334031343460083,1.0,0.87,0.001
316,0.3134355843067169,0.4329111576080322,1.0,0.87,0.001
317,0.3133999705314636,0.4325229525566101,1.0,0.87,0.001
318,0.3134201765060425,0.43249303102493286,1.0,0.87,0.001
319,0.313429594039917,0.4335927665233612,1.0,0.88,0.001
320,0.31342196464538574,0.43435749411582947,1.0,0.88,0.001
321,0.3134174942970276,0.43585145473480225,1.0,0.87,0.001
322,0.3134061396121979,0.4367983341217041,1.0,0.86,0.001
323,0.3134045898914337,0.43899795413017273,1.0,0.86,0.001
324,0.3133920729160309,0.44093263149261475,1.0,0.86,0.001
325,0.31341785192489624,0.44087737798690796,1.0,0.86,0.001
326,0.3134097158908844,0.43925735354423523,1.0,0.86,0.001
327,0.313421368598938,0.43745657801628113,1.0,0.86,0.001
328,0.31340575218200684,0.4362061023712158,1.0,0.87,0.001
329,0.3134021759033203,0.43464624881744385,1.0,0.87,0.001
330,0.3134028911590576,0.43468913435935974,1.0,0.87,0.001
331,0.3133942186832428,0.43480953574180603,1.0,0.87,0.001
332,0.3134133219718933,0.43411147594451904,1.0,0.87,0.001
333,0.3133971095085144,0.43418747186660767,1.0,0.87,0.001
334,0.31342607736587524,0.4340256452560425,1.0,0.87,0.001
335,0.31339579820632935,0.4340764582157135,1.0,0.87,0.001
336,0.31340980529785156,0.43363165855407715,1.0,0.89,0.001
337,0.31339967250823975,0.4326084554195404,1.0,0.89,0.001
338,0.3134096562862396,0.4327896535396576,1.0,0.89,0.001
339,0.3133767545223236,0.43442708253860474,1.0,0.87,0.001
340,0.31338027119636536,0.436748743057251,1.0,0.87,0.001
341,0.3133877217769623,0.43891727924346924,1.0,0.86,0.001
342,0.31339436769485474,0.43828174471855164,1.0,0.85,0.001
343,0.3133982717990875,0.43707534670829773,1.0,0.85,0.001
344,0.313392698764801,0.4363572299480438,1.0,0.85,0.001
345,0.3133902847766876,0.4355560541152954,1.0,0.86,0.001
346,0.31339967250823975,0.4344661831855774,1.0,0.87,0.001
347,0.31341955065727234,0.43354856967926025,1.0,0.88,0.001
348,0.31339770555496216,0.43336760997772217,1.0,0.88,0.001
349,0.31337207555770874,0.43357545137405396,1.0,0.88,0.001
350,0.3134092390537262,0.43435895442962646,1.0,0.88,0.001
351,0.3133809566497803,0.435690313577652,1.0,0.87,0.001
352,0.31336861848831177,0.4365968406200409,1.0,0.87,0.001
353,0.31346938014030457,0.4366374611854553,1.0,0.86,0.001
354,0.3133772313594818,0.43638092279434204,1.0,0.87,0.001
355,0.3133755922317505,0.435937762260437,1.0,0.87,0.001
356,0.3133963346481323,0.43501731753349304,1.0,0.87,0.001
357,0.31337031722068787,0.4350530207157135,1.0,0.87,0.001
358,0.31339550018310547,0.435835599899292,1.0,0.87,0.001
359,0.3133885860443115,0.43696701526641846,1.0,0.87,0.001
360,0.3133925497531891,0.43789371848106384,1.0,0.86,0.001
361,0.31339821219444275,0.43934059143066406,1.0,0.86,0.001
362,0.3133803904056549,0.44033747911453247,1.0,0.86,0.001
363,0.31343182921409607,0.4355223774909973,1.0,0.88,0.001
364,0.3134048879146576,0.4317057132720947,1.0,0.88,0.001
365,0.3134095072746277,0.4321548342704773,1.0,0.86,0.001
366,0.3133854568004608,0.43410724401474,1.0,0.86,0.001
367,0.3134106993675232,0.43437060713768005,1.0,0.86,0.001
368,0.3133797347545624,0.43456462025642395,1.0,0.87,0.001
369,0.3134154975414276,0.43404918909072876,1.0,0.88,0.001
370,0.3133925497531891,0.43501490354537964,1.0,0.87,0.001
371,0.31338995695114136,0.4357782304286957,1.0,0.86,0.001
372,0.31341344118118286,0.4371817409992218,1.0,0.86,0.001
373,0.3133805990219116,0.43743419647216797,1.0,0.87,0.001
374,0.31337136030197144,0.4368745684623718,1.0,0.87,0.001
375,0.31338101625442505,0.43528828024864197,1.0,0.88,0.001
376,0.31338581442832947,0.43346869945526123,1.0,0.88,0.001
377,0.31340813636779785,0.43109944462776184,1.0,0.88,0.001
378,0.31338176131248474,0.43083104491233826,1.0,0.87,0.001
379,0.31340038776397705,0.4323045313358307,1.0,0.87,0.001
380,0.313394695520401,0.4332706034183502,1.0,0.87,0.001
381,0.31339576840400696,0.43530040979385376,1.0,0.86,0.001
382,0.3133946657180786,0.43609362840652466,1.0,0.87,0.001
383,0.3133794069290161,0.43636754155158997,1.0,0.88,0.001
384,0.3133785128593445,0.4358128607273102,1.0,0.88,0.001
385,0.3133745789527893,0.4351808428764343,1.0,0.88,0.001
386,0.3133942484855652,0.43507736921310425,1.0,0.87,0.001
387,0.31338778138160706,0.4342578053474426,1.0,0.87,0.001
388,0.3133969008922577,0.4330087900161743,1.0,0.88,0.001
389,0.3133805990219116,0.43125972151756287,1.0,0.88,0.001
390,0.31336671113967896,0.4310874938964844,1.0,0.88,0.001
391,0.31338393688201904,0.4328903555870056,1.0,0.87,0.001
392,0.31338050961494446,0.4351452589035034,1.0,0.87,0.001
393,0.31336209177970886,0.4366690516471863,1.0,0.87,0.001
394,0.31336984038352966,0.437800794839859,1.0,0.86,0.001
395,0.31336623430252075,0.4373660683631897,1.0,0.87,0.001
396,0.3133603036403656,0.4354809820652008,1.0,0.88,0.001
397,0.3133581876754761,0.4339839220046997,1.0,0.89,0.001
398,0.3133660554885864,0.43465012311935425,1.0,0.87,0.001
399,0.31338122487068176,0.4366937577724457,1.0,0.87,0.001
400,0.31340184807777405,0.4383526146411896,1.0,0.87,0.001
401,0.3133634626865387,0.43745604157447815,1.0,0.86,0.001
402,0.31336864829063416,0.4361010789871216,1.0,0.87,0.001
403,0.3133888840675354,0.4318009614944458,1.0,0.88,0.001
404,0.3133833408355713,0.4292353093624115,1.0,0.89,0.001
405,0.3133671283721924,0.42840713262557983,1.0,0.89,0.001
406,0.31336918473243713,0.4290270209312439,1.0,0.87,0.001
407,0.3133653700351715,0.4304550290107727,1.0,0.87,0.001
408,0.3133668601512909,0.4317437410354614,1.0,0.87,0.001
409,0.3133801519870758,0.4335837960243225,1.0,0.87,0.001
410,0.3133589029312134,0.4348237216472626,1.0,0.87,0.001
411,0.31337401270866394,0.4364495575428009,1.0,0.87,0.0007937005259840996
412,0.3133698105812073,0.4360727369785309,1.0,0.87,0.0007937005259840996
413,0.31336212158203125,0.4359159469604492,1.0,0.87,0.0007937005259840996
414,0.31336337327957153,0.43602415919303894,1.0,0.87,0.0007937005259840996
415,0.31336939334869385,0.43636244535446167,1.0,0.87,0.0007937005259840996
416,0.31337884068489075,0.43609485030174255,1.0,0.87,0.0007937005259840996
417,0.3133654296398163,0.4353960454463959,1.0,0.87,0.0007937005259840996
418,0.313353568315506,0.43549346923828125,1.0,0.87,0.0007937005259840996
419,0.3133530914783478,0.4363781809806824,1.0,0.87,0.0007937005259840996
420,0.313376247882843,0.4382243752479553,1.0,0.87,0.0007937005259840996
421,0.31335097551345825,0.44022583961486816,1.0,0.86,0.0007937005259840996
422,0.3133448362350464,0.4414302408695221,1.0,0.86,0.0007937005259840996
423,0.31335556507110596,0.4422164857387543,1.0,0.86,0.0007937005259840996
424,0.3133526146411896,0.44185301661491394,1.0,0.86,0.0007937005259840996
425,0.3133557438850403,0.44035694003105164,1.0,0.86,0.0007937005259840996
426,0.31334689259529114,0.4388580322265625,1.0,0.87,0.0007937005259840996
427,0.31335124373435974,0.4383770823478699,1.0,0.87,0.0007937005259840996
428,0.3133610188961029,0.43837615847587585,1.0,0.87,0.0007937005259840996
429,0.31338179111480713,0.43709269165992737,1.0,0.87,0.0007937005259840996
430,0.3133901059627533,0.43707984685897827,1.0,0.86,0.0007937005259840996
431,0.3133605122566223,0.43714702129364014,1.0,0.86,0.0007937005259840996
432,0.3133485019207001,0.43701091408729553,1.0,0.87,0.0007937005259840996
433,0.3133554458618164,0.4379517436027527,1.0,0.87,0.0007937005259840996
434,0.3133530914783478,0.4390845000743866,1.0,0.87,0.0007937005259840996
435,0.3133438229560852,0.4401947855949402,1.0,0.87,0.0007937005259840996
436,0.3133700489997864,0.4402385652065277,1.0,0.87,0.0007937005259840996
437,0.3133617341518402,0.4392562508583069,1.0,0.87,0.0007937005259840996
438,0.3133654296398163,0.43805113434791565,1.0,0.86,0.0007937005259840996
439,0.31334397196769714,0.43734246492385864,1.0,0.86,0.0007937005259840996
440,0.3133731782436371,0.43884578347206116,1.0,0.87,0.0007937005259840996
441,0.31335651874542236,0.43847644329071045,1.0,0.86,0.0007937005259840996
442,0.31336742639541626,0.43826624751091003,1.0,0.87,0.0007937005259840996
443,0.3133457899093628,0.4378713369369507,1.0,0.86,0.0007937005259840996
444,0.3133563697338104,0.43778374791145325,1.0,0.86,0.0007937005259840996
445,0.31340134143829346,0.43709078431129456,1.0,0.88,0.0007937005259840996
446,0.31334084272384644,0.4363337755203247,1.0,0.88,0.0007937005259840996
447,0.3133600652217865,0.43634703755378723,1.0,0.87,0.0007937005259840996
448,0.31337815523147583,0.43766772747039795,1.0,0.87,0.0007937005259840996
449,0.3133717477321625,0.4388318657875061,1.0,0.87,0.0007937005259840996
450,0.3133513927459717,0.44019439816474915,1.0,0.86,0.0007937005259840996
451,0.3133591413497925,0.4415203034877777,1.0,0.86,0.0007937005259840996
452,0.31338876485824585,0.44107046723365784,1.0,0.86,0.0007937005259840996
453,0.31334900856018066,0.440980464220047,1.0,0.86,0.0007937005259840996
454,0.31334438920021057,0.44122275710105896,1.0,0.86,0.0007937005259840996
455,0.31335410475730896,0.44071295857429504,1.0,0.86,0.0007937005259840996
456,0.3133385479450226,0.44046318531036377,1.0,0.86,0.0007937005259840996
457,0.313365638256073,0.43903377652168274,1.0,0.86,0.0007937005259840996
458,0.3133479356765747,0.4381563067436218,1.0,0.87,0.0007937005259840996
459,0.3133508265018463,0.43770119547843933,1.0,0.87,0.0007937005259840996
460,0.31334730982780457,0.43728867173194885,1.0,0.87,0.0007937005259840996
461,0.31334540247917175,0.4377623498439789,1.0,0.87,0.0007937005259840996
462,0.31334733963012695,0.438668429851532,1.0,0.87,0.0007937005259840996
463,0.31335529685020447,0.4394319951534271,1.0,0.86,0.0007937005259840996
464,0.31335726380348206,0.4391871392726898,1.0,0.86,0.0007937005259840996
465,0.31333932280540466,0.4387250244617462,1.0,0.86,0.0007937005259840996
466,0.313353568315506,0.43810901045799255,1.0,0.86,0.0007937005259840996
467,0.31335800886154175,0.43759390711784363,1.0,0.86,0.0007937005259840996
468,0.3133412301540375,0.43703633546829224,1.0,0.86,0.0007937005259840996
469,0.31338146328926086,0.437170147895813,1.0,0.88,0.0007937005259840996
470,0.3133469820022583,0.43647438287734985,1.0,0.87,0.0007937005259840996
471,0.31335118412971497,0.43660885095596313,1.0,0.86,0.0007937005259840996
472,0.31334754824638367,0.43729880452156067,1.0,0.87,0.0007937005259840996
473,0.31333789229393005,0.43866878747940063,1.0,0.86,0.0007937005259840996
474,0.3133477568626404,0.4396965801715851,1.0,0.86,0.0007937005259840996
475,0.3133505582809448,0.4416162371635437,1.0,0.86,0.0007937005259840996
476,0.31333839893341064,0.44257861375808716,1.0,0.85,0.0007937005259840996
477,0.3133435547351837,0.44304102659225464,1.0,0.86,0.0007937005259840996
478,0.3133436441421509,0.4427736699581146,1.0,0.86,0.0007937005259840996
479,0.31335532665252686,0.4408862292766571,1.0,0.86,0.0007937005259840996
480,0.31335800886154175,0.439026802778244,1.0,0.86,0.0007937005259840996
481,0.31333425641059875,0.4383604824542999,1.0,0.86,0.0007937005259840996
482,0.31334158778190613,0.43877121806144714,1.0,0.86,0.0007937005259840996
483,0.31335026025772095,0.439644455909729,1.0,0.86,0.0007937005259840996
484,0.31337055563926697,0.4414527118206024,1.0,0.85,0.0007937005259840996
485,0.3133418560028076,0.4419144093990326,1.0,0.85,0.0007937005259840996
486,0.313335120677948,0.4420398771762848,1.0,0.86,0.0007937005259840996
487,0.3133449852466583,0.44086167216300964,1.0,0.86,0.0007937005259840996
488,0.3133617341518402,0.43862468004226685,1.0,0.87,0.0007937005259840996
489,0.31333789229393005,0.4369000196456909,1.0,0.87,0.0007937005259840996
490,0.31334275007247925,0.4358494281768799,1.0,0.86,0.0007937005259840996
491,0.3133394420146942,0.43566563725471497,1.0,0.87,0.0007937005259840996
492,0.3133352994918823,0.43605679273605347,1.0,0.87,0.0007937005259840996
493,0.31333836913108826,0.4363963007926941,1.0,0.87,0.0007937005259840996
494,0.3133491575717926,0.4357263445854187,1.0,0.87,0.0007937005259840996
495,0.31334084272384644,0.43477383255958557,1.0,0.87,0.0007937005259840996
496,0.3133378028869629,0.4347475469112396,1.0,0.87,0.0007937005259840996
497,0.31336909532546997,0.4371320605278015,1.0,0.87,0.0007937005259840996
498,0.31333380937576294,0.4393550157546997,1.0,0.86,0.0007937005259840996
499,0.3133569061756134,0.43923449516296387,1.0,0.86,0.0007937005259840996
500,0.3133311867713928,0.4384098947048187,1.0,0.86,0.0007937005259840996
501,0.3133331537246704,0.4380020201206207,1.0,0.87,0.0007937005259840996
502,0.31334349513053894,0.4373968243598938,1.0,0.87,0.0007937005259840996
503,0.31334248185157776,0.4366694688796997,1.0,0.87,0.0007937005259840996
504,0.3133372962474823,0.4366828203201294,1.0,0.87,0.0007937005259840996
505,0.313323050737381,0.4364778995513916,1.0,0.87,0.0007937005259840996
506,0.31334567070007324,0.43671971559524536,1.0,0.87,0.0007937005259840996
507,0.31334248185157776,0.437122106552124,1.0,0.87,0.0007937005259840996
508,0.3133355379104614,0.43792569637298584,1.0,0.87,0.0007937005259840996
509,0.3133370876312256,0.4388704299926758,1.0,0.86,0.0007937005259840996
510,0.3133576214313507,0.4375181496143341,1.0,0.86,0.0007937005259840996
511,0.3133290410041809,0.4368078112602234,1.0,0.86,0.0007937005259840996
512,0.3133350610733032,0.4368566572666168,1.0,0.87,0.0007937005259840996
513,0.31335535645484924,0.4364451467990875,1.0,0.87,0.0007937005259840996
514,0.31334587931632996,0.43741026520729065,1.0,0.87,0.0007937005259840996
515,0.3133467137813568,0.4390517771244049,1.0,0.86,0.0007937005259840996
516,0.31332919001579285,0.44086048007011414,1.0,0.86,0.0007937005259840996
517,0.31332993507385254,0.44220465421676636,1.0,0.86,0.0007937005259840996
518,0.31335198879241943,0.441781222820282,1.0,0.86,0.0007937005259840996
519,0.31332534551620483,0.4410003423690796,1.0,0.86,0.0006299605249474364
520,0.3133251965045929,0.44022229313850403,1.0,0.86,0.0006299605249474364
521,0.31332552433013916,0.43953245878219604,1.0,0.86,0.0006299605249474364
522,0.31333038210868835,0.4394761621952057,1.0,0.86,0.0006299605249474364
523,0.3133354187011719,0.4395778775215149,1.0,0.86,0.0006299605249474364
524,0.31334707140922546,0.4395502805709839,1.0,0.86,0.0006299605249474364
525,0.31333598494529724,0.43898946046829224,1.0,0.86,0.0006299605249474364
526,0.31334513425827026,0.4384305477142334,1.0,0.86,0.0006299605249474364
527,0.3133249580860138,0.43752455711364746,1.0,0.87,0.0006299605249474364
528,0.31332993507385254,0.43673592805862427,1.0,0.87,0.0006299605249474364
529,0.3133269250392914,0.43626412749290466,1.0,0.87,0.0006299605249474364
530,0.3133479952812195,0.43697217106819153,1.0,0.87,0.0006299605249474364
531,0.3133292496204376,0.43822619318962097,1.0,0.86,0.0006299605249474364
532,0.313328355550766,0.4395563006401062,1.0,0.86,0.0006299605249474364
533,0.3133293390274048,0.4402921795845032,1.0,0.86,0.0006299605249474364
534,0.3133261799812317,0.44072917103767395,1.0,0.86,0.0006299605249474364
535,0.3133346438407898,0.44100049138069153,1.0,0.86,0.0006299605249474364
536,0.31331902742385864,0.44112345576286316,1.0,0.86,0.0006299605249474364
537,0.3133355379104614,0.44036319851875305,1.0,0.86,0.0006299605249474364
538,0.313323438167572,0.4399409890174866,1.0,0.86,0.0006299605249474364
539,0.31332483887672424,0.4399721622467041,1.0,0.86,0.0006299605249474364
540,0.3133228123188019,0.44012078642845154,1.0,0.86,0.0006299605249474364
541,0.3133282959461212,0.44055289030075073,1.0,0.86,0.0006299605249474364
542,0.31333184242248535,0.4406352639198303,1.0,0.86,0.0006299605249474364
543,0.31331923604011536,0.4406908452510834,1.0,0.86,0.0006299605249474364
544,0.3133191764354706,0.44074225425720215,1.0,0.86,0.0006299605249474364
545,0.3133251667022705,0.4410504400730133,1.0,0.86,0.0006299605249474364
546,0.3133313059806824,0.44136154651641846,1.0,0.86,0.0006299605249474364
547,0.31331580877304077,0.4416283071041107,1.0,0.86,0.0006299605249474364
548,0.31332799792289734,0.4415055215358734,1.0,0.86,0.0006299605249474364
549,0.3133290410041809,0.44151344895362854,1.0,0.86,0.0006299605249474364
550,0.3133273422718048,0.4416714906692505,1.0,0.86,0.0006299605249474364
551,0.31333062052726746,0.44196686148643494,1.0,0.86,0.0006299605249474364
552,0.3133247196674347,0.4422532916069031,1.0,0.86,0.0006299605249474364
553,0.3133160471916199,0.4423326253890991,1.0,0.86,0.0006299605249474364
554,0.3133174777030945,0.4422558546066284,1.0,0.86,0.0006299605249474364
555,0.3133334517478943,0.4422377049922943,1.0,0.86,0.0006299605249474364
556,0.3133155107498169,0.4421343505382538,1.0,0.86,0.0006299605249474364
557,0.31331849098205566,0.4421634376049042,1.0,0.86,0.0006299605249474364
558,0.3133336305618286,0.44169726967811584,1.0,0.86,0.0006299605249474364
559,0.3133321702480316,0.4400087296962738,1.0,0.86,0.0006299605249474364
560,0.3133314549922943,0.4392648935317993,1.0,0.87,0.0006299605249474364
561,0.31332454085350037,0.4387347102165222,1.0,0.87,0.0006299605249474364
562,0.3133271336555481,0.43900778889656067,1.0,0.87,0.0006299605249474364
563,0.31333374977111816,0.4403148889541626,1.0,0.87,0.0006299605249474364
564,0.31333082914352417,0.44129660725593567,1.0,0.87,0.0006299605249474364
565,0.31334811449050903,0.4405285716056824,1.0,0.87,0.0006299605249474364
566,0.31336385011672974,0.43712088465690613,1.0,0.87,0.0006299605249474364
567,0.3133276700973511,0.4355483949184418,1.0,0.87,0.0006299605249474364
568,0.3133496344089508,0.4351697862148285,1.0,0.86,0.0006299605249474364
569,0.3133302927017212,0.434691846370697,1.0,0.86,0.0006299605249474364
570,0.31332695484161377,0.43451935052871704,1.0,0.86,0.0006299605249474364
571,0.31333592534065247,0.434087336063385,1.0,0.87,0.0006299605249474364
572,0.3133259117603302,0.43382418155670166,1.0,0.87,0.0006299605249474364
573,0.31332287192344666,0.4337853193283081,1.0,0.87,0.0006299605249474364
574,0.31332719326019287,0.4339378774166107,1.0,0.87,0.0006299605249474364
575,0.31332966685295105,0.43462955951690674,1.0,0.87,0.0006299605249474364
576,0.3133367598056793,0.43621230125427246,1.0,0.87,0.0006299605249474364
577,0.31332123279571533,0.4377405047416687,1.0,0.87,0.0006299605249474364
578,0.3133261203765869,0.4386536777019501,1.0,0.86,0.0006299605249474364
579,0.31332793831825256,0.4389583468437195,1.0,0.86,0.0006299605249474364
580,0.31332436203956604,0.4389001131057739,1.0,0.86,0.0006299605249474364
581,0.313323050737381,0.43895724415779114,1.0,0.86,0.0006299605249474364
582,0.31333205103874207,0.43827110528945923,1.0,0.86,0.0006299605249474364
583,0.3133278489112854,0.43752536177635193,1.0,0.87,0.0006299605249474364
584,0.3133338987827301,0.4378071129322052,1.0,0.87,0.0006299605249474364
585,0.3133295476436615,0.4384268820285797,1.0,0.87,0.0006299605249474364
586,0.31332170963287354,0.43928658962249756,1.0,0.87,0.0006299605249474364
587,0.3133336305618286,0.4396458566188812,1.0,0.86,0.0006299605249474364
588,0.31332457065582275,0.4403340816497803,1.0,0.86,0.0006299605249474364
589,0.31333521008491516,0.4404398202896118,1.0,0.86,0.0006299605249474364
590,0.3133174479007721,0.440384179353714,1.0,0.86,0.0006299605249474364
591,0.31333237886428833,0.4401489496231079,1.0,0.86,0.0006299605249474364
592,0.3133258521556854,0.43955284357070923,1.0,0.87,0.0006299605249474364
593,0.3133113384246826,0.4392739534378052,1.0,0.87,0.0006299605249474364
594,0.3133281469345093,0.4384550154209137,1.0,0.87,0.0006299605249474364
595,0.31331750750541687,0.4378572702407837,1.0,0.87,0.0006299605249474364
596,0.31333065032958984,0.4380037784576416,1.0,0.87,0.0006299605249474364
597,0.31332457065582275,0.4384761452674866,1.0,0.87,0.0006299605249474364
598,0.3133183717727661,0.4393848776817322,1.0,0.86,0.0006299605249474364
599,0.31332117319107056,0.4399118423461914,1.0,0.86,0.0006299605249474364
600,0.31331974267959595,0.4401462972164154,1.0,0.86,0.0006299605249474364
601,0.3133206069469452,0.4405442178249359,1.0,0.86,0.0006299605249474364
602,0.3133207857608795,0.44078463315963745,1.0,0.86,0.0006299605249474364
603,0.31331774592399597,0.44103217124938965,1.0,0.86,0.0006299605249474364
604,0.3133343458175659,0.44076991081237793,1.0,0.86,0.0006299605249474364
605,0.3133184611797333,0.44059550762176514,1.0,0.86,0.0006299605249474364
606,0.3133161664009094,0.44067347049713135,1.0,0.86,0.0006299605249474364
607,0.3133195638656616,0.44078513979911804,1.0,0.86,0.0006299605249474364
608,0.3133166432380676,0.4409885108470917,1.0,0.86,0.0006299605249474364
609,0.31332799792289734,0.4412941336631775,1.0,0.86,0.0006299605249474364
610,0.31331485509872437,0.4418278932571411,1.0,0.86,0.0006299605249474364
611,0.3133215606212616,0.44212788343429565,1.0,0.86,0.0006299605249474364
612,0.31330952048301697,0.4425380229949951,1.0,0.86,0.0006299605249474364
613,0.31332293152809143,0.4430740475654602,1.0,0.86,0.0006299605249474364
614,0.31331318616867065,0.44330155849456787,1.0,0.86,0.0006299605249474364
615,0.3133212924003601,0.4430968165397644,1.0,0.86,0.0006299605249474364
616,0.31330838799476624,0.4428882598876953,1.0,0.86,0.0006299605249474364
617,0.3133283853530884,0.4418310821056366,1.0,0.86,0.0006299605249474364
618,0.3133196234703064,0.4409385323524475,1.0,0.86,0.0006299605249474364
619,0.31332042813301086,0.4399387836456299,1.0,0.86,0.0006299605249474364
620,0.31332045793533325,0.43910080194473267,1.0,0.87,0.0006299605249474364
621,0.31331074237823486,0.4392565190792084,1.0,0.87,0.0006299605249474364
622,0.3133261203765869,0.4402656853199005,1.0,0.87,0.0006299605249474364
623,0.31331977248191833,0.44128185510635376,1.0,0.87,0.0006299605249474364
624,0.3133143484592438,0.44238680601119995,1.0,0.86,0.0006299605249474364
625,0.3133181035518646,0.44333091378211975,1.0,0.86,0.0006299605249474364
626,0.31331342458724976,0.443867564201355,1.0,0.86,0.0006299605249474364
627,0.31333959102630615,0.4425097405910492,1.0,0.86,0.0006299605249474364
628,0.3133144676685333,0.44214001297950745,1.0,0.86,0.0006299605249474364
629,0.31331685185432434,0.44196850061416626,1.0,0.86,0.0006299605249474364
630,0.31331291794776917,0.4420655071735382,1.0,0.86,0.0006299605249474364
631,0.31332406401634216,0.4427611827850342,1.0,0.86,0.0006299605249474364
632,0.3133186101913452,0.44289934635162354,1.0,0.86,0.0006299605249474364
633,0.3133191466331482,0.4426342844963074,1.0,0.86,0.0006299605249474364
634,0.3133140504360199,0.4422270655632019,1.0,0.86,0.0006299605249474364
635,0.3133139908313751,0.44179293513298035,1.0,0.86,0.0006299605249474364
636,0.31331512331962585,0.4414927363395691,1.0,0.86,0.0006299605249474364
637,0.3133120536804199,0.44139471650123596,1.0,0.86,0.0004999999999999997
638,0.3133116662502289,0.44187790155410767,1.0,0.86,0.0004999999999999997
639,0.31331920623779297,0.4417468309402466,1.0,0.86,0.0004999999999999997
640,0.31332075595855713,0.4414290189743042,1.0,0.86,0.0004999999999999997
641,0.31332331895828247,0.44117438793182373,1.0,0.86,0.0004999999999999997
642,0.3133162558078766,0.4410329759120941,1.0,0.86,0.0004999999999999997
643,0.3133176863193512,0.4413418173789978,1.0,0.86,0.0004999999999999997
644,0.3133135139942169,0.4416772425174713,1.0,0.86,0.0004999999999999997
645,0.31331631541252136,0.44171562790870667,1.0,0.86,0.0004999999999999997
646,0.31333792209625244,0.4416712820529938,1.0,0.86,0.0004999999999999997
647,0.31331735849380493,0.4419759511947632,1.0,0.86,0.0004999999999999997
648,0.3133253753185272,0.4426397979259491,1.0,0.86,0.0004999999999999997
649,0.3133140206336975,0.443501740694046,1.0,0.86,0.0004999999999999997
650,0.3133196532726288,0.44398772716522217,1.0,0.86,0.0004999999999999997
651,0.3133114278316498,0.4443472623825073,1.0,0.86,0.0004999999999999997
652,0.3133116662502289,0.444782555103302,1.0,0.86,0.0004999999999999997
653,0.31331244111061096,0.4448075592517853,1.0,0.86,0.0004999999999999997
654,0.31331193447113037,0.4447002410888672,1.0,0.86,0.0004999999999999997
655,0.31331148743629456,0.44454994797706604,1.0,0.86,0.0004999999999999997
656,0.3133203983306885,0.4442647099494934,1.0,0.86,0.0004999999999999997
657,0.31331461668014526,0.44392356276512146,1.0,0.86,0.0004999999999999997
658,0.3133150637149811,0.44283080101013184,1.0,0.86,0.0004999999999999997
659,0.31330636143684387,0.44207191467285156,1.0,0.86,0.0004999999999999997
660,0.31331098079681396,0.4413883686065674,1.0,0.86,0.0004999999999999997
661,0.3133130967617035,0.44089195132255554,1.0,0.86,0.0004999999999999997
662,0.3133115768432617,0.4405602514743805,1.0,0.87,0.0004999999999999997
663,0.3133125901222229,0.44078177213668823,1.0,0.87,0.0004999999999999997
664,0.31330522894859314,0.44105398654937744,1.0,0.86,0.0004999999999999997
665,0.3133135437965393,0.44138988852500916,1.0,0.86,0.0004999999999999997
666,0.3133211135864258,0.44187813997268677,1.0,0.86,0.0004999999999999997
667,0.3133220672607422,0.4430868625640869,1.0,0.86,0.0004999999999999997
668,0.3133135735988617,0.4437676668167114,1.0,0.86,0.0004999999999999997
669,0.3133244812488556,0.444113552570343,1.0,0.86,0.0004999999999999997
670,0.3133199214935303,0.4437348246574402,1.0,0.86,0.0004999999999999997
671,0.31330931186676025,0.443132221698761,1.0,0.86,0.0004999999999999997
672,0.3133079409599304,0.4428386688232422,1.0,0.86,0.0004999999999999997
673,0.31331363320350647,0.4426778554916382,1.0,0.86,0.0004999999999999997
674,0.313322514295578,0.44276532530784607,1.0,0.86,0.0004999999999999997
675,0.3133121430873871,0.44321900606155396,1.0,0.86,0.0004999999999999997
676,0.31331318616867065,0.44363337755203247,1.0,0.86,0.0004999999999999997
677,0.3133232593536377,0.44493958353996277,1.0,0.86,0.0004999999999999997
678,0.3133084177970886,0.44592830538749695,1.0,0.86,0.0004999999999999997
679,0.31331667304039,0.4469138979911804,1.0,0.86,0.0004999999999999997
680,0.31330952048301697,0.44736212491989136,1.0,0.86,0.0004999999999999997
681,0.3133130371570587,0.4474864602088928,1.0,0.86,0.0004999999999999997
682,0.31331536173820496,0.44703465700149536,1.0,0.86,0.0004999999999999997
683,0.3133062720298767,0.44661104679107666,1.0,0.86,0.0004999999999999997
684,0.31332266330718994,0.44460591673851013,1.0,0.86,0.0004999999999999997
685,0.3133113384246826,0.4431355595588684,1.0,0.86,0.0004999999999999997
686,0.3133102357387543,0.44248345494270325,1.0,0.86,0.0004999999999999997
687,0.3133292496204376,0.44263431429862976,1.0,0.86,0.0004999999999999997
688,0.3133147954940796,0.44365864992141724,1.0,0.86,0.0004999999999999997
689,0.3133091628551483,0.44486141204833984,1.0,0.86,0.0004999999999999997
690,0.31330791115760803,0.44590142369270325,1.0,0.86,0.0004999999999999997
691,0.3133116662502289,0.44614583253860474,1.0,0.86,0.0004999999999999997
692,0.3133130967617035,0.44610074162483215,1.0,0.86,0.0004999999999999997
693,0.31331416964530945,0.4456409215927124,1.0,0.86,0.0004999999999999997
694,0.31330692768096924,0.4455369710922241,1.0,0.86,0.0004999999999999997
695,0.31331440806388855,0.44599831104278564,1.0,0.86,0.0004999999999999997
696,0.3133140802383423,0.44672614336013794,1.0,0.86,0.0004999999999999997
697,0.3133127689361572,0.44730132818222046,1.0,0.86,0.0004999999999999997
698,0.31331050395965576,0.4478271007537842,1.0,0.86,0.0004999999999999997
699,0.3133021593093872,0.4481881856918335,1.0,0.86,0.0004999999999999997
700,0.3133147060871124,0.4480789303779602,1.0,0.86,0.0004999999999999997
701,0.3133338987827301,0.4468214511871338,1.0,0.86,0.0004999999999999997
702,0.3133077025413513,0.4454841613769531,1.0,0.86,0.0004999999999999997
703,0.31331562995910645,0.4447828531265259,1.0,0.86,0.0004999999999999997
704,0.3133046627044678,0.44471749663352966,1.0,0.86,0.0004999999999999997
705,0.3133131265640259,0.4449673891067505,1.0,0.86,0.0004999999999999997
706,0.31330883502960205,0.44556131958961487,1.0,0.85,0.0004999999999999997
707,0.31330379843711853,0.4464860260486603,1.0,0.85,0.0004999999999999997
708,0.31330937147140503,0.44706031680107117,1.0,0.85,0.0004999999999999997
709,0.3133097290992737,0.4475831091403961,1.0,0.85,0.0004999999999999997
710,0.31330716609954834,0.44777584075927734,1.0,0.86,0.0004999999999999997
711,0.3133062720298767,0.44788846373558044,1.0,0.86,0.0004999999999999997
712,0.3133039176464081,0.4475860297679901,1.0,0.86,0.0004999999999999997
713,0.3133053481578827,0.4471803903579712,1.0,0.86,0.0004999999999999997
714,0.31330606341362,0.4467548429965973,1.0,0.86,0.0004999999999999997
715,0.31331583857536316,0.446115642786026,1.0,0.86,0.0004999999999999997
716,0.3133145570755005,0.44584864377975464,1.0,0.86,0.0004999999999999997
717,0.31330740451812744,0.4452555477619171,1.0,0.86,0.0004999999999999997
718,0.3133072555065155,0.444772332906723,1.0,0.86,0.0004999999999999997
719,0.31330549716949463,0.4444901943206787,1.0,0.86,0.0004999999999999997
720,0.3133017420768738,0.4448082745075226,1.0,0.86,0.0004999999999999997
721,0.3133072853088379,0.4451923370361328,1.0,0.86,0.0004999999999999997
722,0.3133101165294647,0.44546303153038025,1.0,0.86,0.0004999999999999997
723,0.31330886483192444,0.44582608342170715,1.0,0.86,0.0004999999999999997
724,0.3133031725883484,0.44611766934394836,1.0,0.86,0.0004999999999999997
725,0.31330394744873047,0.44622334837913513,1.0,0.86,0.0004999999999999997
726,0.3133011758327484,0.44618168473243713,1.0,0.86,0.0004999999999999997
727,0.3133055567741394,0.445975124835968,1.0,0.86,0.0004999999999999997
728,0.313307523727417,0.4458100199699402,1.0,0.86,0.0004999999999999997
729,0.313306987285614,0.4455192983150482,1.0,0.86,0.0004999999999999997
730,0.3133087456226349,0.4450312554836273,1.0,0.86,0.0004999999999999997
731,0.31330519914627075,0.4447134733200073,1.0,0.86,0.0004999999999999997
732,0.31330496072769165,0.44476401805877686,1.0,0.86,0.0004999999999999997
733,0.31330978870391846,0.4451097846031189,1.0,0.86,0.0004999999999999997
734,0.31330257654190063,0.44571009278297424,1.0,0.86,0.0004999999999999997
735,0.3133056163787842,0.4466822147369385,1.0,0.86,0.0004999999999999997
736,0.3133077919483185,0.4479592442512512,1.0,0.86,0.0004999999999999997
737,0.31330329179763794,0.44877544045448303,1.0,0.86,0.0004999999999999997
738,0.31331107020378113,0.4488902986049652,1.0,0.86,0.00039685026299204955
739,0.31330811977386475,0.4485536515712738,1.0,0.86,0.00039685026299204955
740,0.31330376863479614,0.4484347999095917,1.0,0.86,0.00039685026299204955
741,0.3133065104484558,0.44820019602775574,1.0,0.86,0.00039685026299204955
742,0.3133060932159424,0.44791847467422485,1.0,0.86,0.00039685026299204955
743,0.31330031156539917,0.4474775791168213,1.0,0.86,0.00039685026299204955
744,0.3133108615875244,0.4469655752182007,1.0,0.86,0.00039685026299204955
745,0.31330040097236633,0.44663891196250916,1.0,0.86,0.00039685026299204955
746,0.31330808997154236,0.44635462760925293,1.0,0.86,0.00039685026299204955
747,0.31330743432044983,0.4459918141365051,1.0,0.86,0.00039685026299204955
748,0.31330838799476624,0.44541844725608826,1.0,0.86,0.00039685026299204955
749,0.3132997155189514,0.4453389048576355,1.0,0.86,0.00039685026299204955
750,0.31330519914627075,0.445409893989563,1.0,0.86,0.00039685026299204955
751,0.3133048117160797,0.44528400897979736,1.0,0.86,0.00039685026299204955
752,0.31329846382141113,0.44534435868263245,1.0,0.86,0.00039685026299204955
753,0.3133017122745514,0.4458679258823395,1.0,0.86,0.00039685026299204955
754,0.3132992088794708,0.446356862783432,1.0,0.86,0.00039685026299204955
755,0.31330350041389465,0.44697651267051697,1.0,0.86,0.00039685026299204955
756,0.3132990002632141,0.44748538732528687,1.0,0.86,0.00039685026299204955
757,0.3133021891117096,0.4477790892124176,1.0,0.86,0.00039685026299204955
758,0.3133120834827423,0.44708824157714844,1.0,0.86,0.00039685026299204955
759,0.31331324577331543,0.44630491733551025,1.0,0.86,0.00039685026299204955
760,0.3133096992969513,0.4458920359611511,1.0,0.86,0.00039685026299204955
761,0.3133070468902588,0.4460330903530121,1.0,0.86,0.00039685026299204955
762,0.313321053981781,0.44646599888801575,1.0,0.86,0.00039685026299204955
763,0.31330353021621704,0.4467275142669678,1.0,0.86,0.00039685026299204955
764,0.3133070468902588,0.4470634460449219,1.0,0.85,0.00039685026299204955
765,0.31330758333206177,0.447376549243927,1.0,0.85,0.00039685026299204955
766,0.31329527497291565,0.44749441742897034,1.0,0.86,0.00039685026299204955
767,0.3133057653903961,0.4476749897003174,1.0,0.86,0.00039685026299204955
768,0.3132990598678589,0.44792431592941284,1.0,0.86,0.00039685026299204955
769,0.31330183148384094,0.44776034355163574,1.0,0.86,0.00039685026299204955
770,0.31331852078437805,0.446946382522583,1.0,0.86,0.00039685026299204955
771,0.3133038580417633,0.44538548588752747,1.0,0.86,0.00039685026299204955
772,0.31329795718193054,0.44392871856689453,1.0,0.86,0.00039685026299204955
773,0.3133014738559723,0.4428718686103821,1.0,0.86,0.00039685026299204955
774,0.31330499053001404,0.44276654720306396,1.0,0.86,0.00039685026299204955
775,0.31330516934394836,0.4433210492134094,1.0,0.86,0.00039685026299204955
776,0.3133125305175781,0.4441247582435608,1.0,0.86,0.00039685026299204955
777,0.3133002817630768,0.4451858103275299,1.0,0.86,0.00039685026299204955
778,0.3132973313331604,0.44577381014823914,1.0,0.86,0.00039685026299204955
779,0.3133120536804199,0.44597262144088745,1.0,0.86,0.00039685026299204955
780,0.31330564618110657,0.446086049079895,1.0,0.86,0.00039685026299204955
781,0.3133007287979126,0.44608405232429504,1.0,0.86,0.00039685026299204955
782,0.3132975697517395,0.4459702968597412,1.0,0.86,0.00039685026299204955
783,0.3133043050765991,0.44554102420806885,1.0,0.86,0.00039685026299204955
784,0.3133000433444977,0.44510790705680847,1.0,0.86,0.00039685026299204955
785,0.31330499053001404,0.4451841115951538,1.0,0.86,0.00039685026299204955
786,0.31330642104148865,0.44522425532341003,1.0,0.86,0.00039685026299204955
787,0.3132993280887604,0.4454972445964813,1.0,0.86,0.00039685026299204955
788,0.3132995665073395,0.44594618678092957,1.0,0.86,0.00039685026299204955
789,0.3133137822151184,0.44660472869873047,1.0,0.86,0.00039685026299204955
790,0.3133064806461334,0.4470561742782593,1.0,0.86,0.00039685026299204955
791,0.3132995665073395,0.4471161663532257,1.0,0.86,0.00039685026299204955
792,0.3133142590522766,0.44680023193359375,1.0,0.86,0.00039685026299204955
793,0.31330668926239014,0.4464152455329895,1.0,0.86,0.00039685026299204955
794,0.31330084800720215,0.4458063244819641,1.0,0.86,0.00039685026299204955
795,0.31329941749572754,0.4450521171092987,1.0,0.86,0.00039685026299204955
796,0.3133026361465454,0.44468414783477783,1.0,0.86,0.00039685026299204955
797,0.31330057978630066,0.44479066133499146,1.0,0.86,0.00039685026299204955
798,0.31329813599586487,0.4451759457588196,1.0,0.86,0.00039685026299204955
799,0.31331950426101685,0.4454996585845947,1.0,0.86,0.00039685026299204955
800,0.31329914927482605,0.4459456503391266,1.0,0.86,0.00039685026299204955
801,0.3133004307746887,0.4461040496826172,1.0,0.86,0.00039685026299204955
802,0.31329724192619324,0.44606539607048035,1.0,0.86,0.00039685026299204955
803,0.31330275535583496,0.4459318518638611,1.0,0.86,0.00039685026299204955
804,0.3133028745651245,0.44582313299179077,1.0,0.86,0.00039685026299204955
805,0.3132968842983246,0.44520217180252075,1.0,0.86,0.00039685026299204955
806,0.31330016255378723,0.4448539614677429,1.0,0.86,0.00039685026299204955
807,0.31329429149627686,0.44478026032447815,1.0,0.86,0.00039685026299204955
808,0.3133060038089752,0.44504764676094055,1.0,0.86,0.00039685026299204955
809,0.31329938769340515,0.4454711079597473,1.0,0.86,0.00039685026299204955
810,0.3132973909378052,0.44604018330574036,1.0,0.86,0.00039685026299204955
811,0.3133000135421753,0.44624924659729004,1.0,0.86,0.00039685026299204955
812,0.31330397725105286,0.44617125391960144,1.0,0.86,0.00039685026299204955
813,0.31329888105392456,0.44614312052726746,1.0,0.86,0.00039685026299204955
814,0.31329354643821716,0.44616177678108215,1.0,0.86,0.00039685026299204955
815,0.3132997751235962,0.44637322425842285,1.0,0.86,0.00039685026299204955
816,0.3132927417755127,0.4465745985507965,1.0,0.86,0.00039685026299204955
817,0.3132951557636261,0.4465663433074951,1.0,0.86,0.00039685026299204955
818,0.31329602003097534,0.4465065002441406,1.0,0.86,0.00039685026299204955
819,0.31329718232154846,0.44623130559921265,1.0,0.86,0.00039685026299204955
820,0.31329840421676636,0.4461311399936676,1.0,0.86,0.00039685026299204955
821,0.31329256296157837,0.44605183601379395,1.0,0.86,0.00039685026299204955
822,0.3133000135421753,0.4463336169719696,1.0,0.86,0.00039685026299204955
823,0.3133015036582947,0.44725149869918823,1.0,0.86,0.00039685026299204955
824,0.3133028745651245,0.4473007917404175,1.0,0.86,0.00039685026299204955
825,0.3132980465888977,0.4474097490310669,1.0,0.86,0.00039685026299204955
826,0.31329309940338135,0.44744741916656494,1.0,0.86,0.00039685026299204955
827,0.31329482793807983,0.44712546467781067,1.0,0.86,0.00039685026299204955
828,0.31329813599586487,0.4467714726924896,1.0,0.86,0.00039685026299204955
829,0.3132973611354828,0.4464002251625061,1.0,0.86,0.00039685026299204955
830,0.31330397725105286,0.44607165455818176,1.0,0.86,0.00039685026299204955
831,0.31330493092536926,0.44508880376815796,1.0,0.86,0.00039685026299204955
832,0.3132978677749634,0.4442089796066284,1.0,0.86,0.00039685026299204955
833,0.3132998049259186,0.4439699649810791,1.0,0.86,0.00039685026299204955
834,0.3133086562156677,0.4445211887359619,1.0,0.86,0.00039685026299204955
835,0.3132963478565216,0.44540518522262573,1.0,0.86,0.00039685026299204955
836,0.31330323219299316,0.4459232985973358,1.0,0.86,0.00039685026299204955
837,0.3133084177970886,0.4463473856449127,1.0,0.86,0.00039685026299204955
838,0.3132992088794708,0.4468423128128052,1.0,0.86,0.00039685026299204955
839,0.31329500675201416,0.4472588300704956,1.0,0.86,0.00031498026247371797
840,0.3133005201816559,0.44704964756965637,1.0,0.86,0.00031498026247371797
841,0.31329724192619324,0.4468976557254791,1.0,0.86,0.00031498026247371797
842,0.3133016526699066,0.44684067368507385,1.0,0.86,0.00031498026247371797
843,0.3132978677749634,0.4468028247356415,1.0,0.86,0.00031498026247371797
844,0.3132942020893097,0.4468664824962616,1.0,0.86,0.00031498026247371797
845,0.3132990598678589,0.4471319317817688,1.0,0.86,0.00031498026247371797
846,0.31330135464668274,0.44672125577926636,1.0,0.86,0.00031498026247371797
847,0.31329989433288574,0.4462713599205017,1.0,0.86,0.00031498026247371797
848,0.31330406665802,0.44597119092941284,1.0,0.86,0.00031498026247371797
849,0.31329548358917236,0.4456425607204437,1.0,0.86,0.00031498026247371797
850,0.31329476833343506,0.4457300305366516,1.0,0.86,0.00031498026247371797
851,0.31329500675201416,0.445832222700119,1.0,0.86,0.00031498026247371797
852,0.3132956624031067,0.44587841629981995,1.0,0.86,0.00031498026247371797
853,0.3133031129837036,0.4469653069972992,1.0,0.86,0.00031498026247371797
854,0.3132933974266052,0.4479641616344452,1.0,0.85,0.00031498026247371797
855,0.3133000135421753,0.4484331011772156,1.0,0.85,0.00031498026247371797
856,0.3132992684841156,0.4485034942626953,1.0,0.85,0.00031498026247371797
857,0.3132959306240082,0.44842633605003357,1.0,0.85,0.00031498026247371797
858,0.31329619884490967,0.4482565224170685,1.0,0.85,0.00031498026247371797
859,0.31329452991485596,0.4476597309112549,1.0,0.86,0.00031498026247371797
860,0.3132947087287903,0.4469843804836273,1.0,0.86,0.00031498026247371797
861,0.3132956027984619,0.44646239280700684,1.0,0.86,0.00031498026247371797
862,0.31329602003097534,0.44574809074401855,1.0,0.87,0.00031498026247371797
863,0.31329184770584106,0.4453866183757782,1.0,0.86,0.00031498026247371797
864,0.3132990598678589,0.4449482262134552,1.0,0.86,0.00031498026247371797
865,0.3132912218570709,0.44466322660446167,1.0,0.86,0.00031498026247371797
866,0.31329968571662903,0.4443374574184418,1.0,0.86,0.00031498026247371797
867,0.31329309940338135,0.4441937506198883,1.0,0.86,0.00031498026247371797
868,0.31329527497291565,0.4442126452922821,1.0,0.86,0.00031498026247371797
869,0.3132942318916321,0.4442964196205139,1.0,0.86,0.00031498026247371797
870,0.31330057978630066,0.4446733891963959,1.0,0.86,0.00031498026247371797
871,0.3132988512516022,0.4452897012233734,1.0,0.86,0.00031498026247371797
872,0.3132980167865753,0.44597023725509644,1.0,0.86,0.00031498026247371797
873,0.31329575181007385,0.4466501474380493,1.0,0.86,0.00031498026247371797
874,0.3133017122745514,0.44734641909599304,1.0,0.86,0.00031498026247371797
875,0.31329047679901123,0.4478280246257782,1.0,0.85,0.00031498026247371797
876,0.31329527497291565,0.4478207528591156,1.0,0.86,0.00031498026247371797
877,0.31329405307769775,0.44782555103302,1.0,0.85,0.00031498026247371797
878,0.31330356001853943,0.4463600516319275,1.0,0.86,0.00031498026247371797
879,0.31330111622810364,0.4448235034942627,1.0,0.87,0.00031498026247371797
880,0.3132963478565216,0.44343721866607666,1.0,0.87,0.00031498026247371797
881,0.3132937252521515,0.4425443410873413,1.0,0.87,0.00031498026247371797
882,0.3132975101470947,0.44220149517059326,1.0,0.87,0.00031498026247371797
883,0.3132939040660858,0.4423285722732544,1.0,0.87,0.00031498026247371797
884,0.3132956922054291,0.44332289695739746,1.0,0.86,0.00031498026247371797
885,0.31330469250679016,0.4449393153190613,1.0,0.86,0.00031498026247371797
886,0.3132966160774231,0.44642338156700134,1.0,0.85,0.00031498026247371797
887,0.31329506635665894,0.4478575587272644,1.0,0.85,0.00031498026247371797
888,0.31329599022865295,0.4489559233188629,1.0,0.85,0.00031498026247371797
889,0.3132976293563843,0.4492349624633789,1.0,0.85,0.00031498026247371797
890,0.31329575181007385,0.4488602876663208,1.0,0.85,0.00031498026247371797
891,0.31332990527153015,0.4438539147377014,1.0,0.87,0.00031498026247371797
892,0.31329816579818726,0.4420805275440216,1.0,0.87,0.00031498026247371797
893,0.31329819560050964,0.4405950903892517,1.0,0.86,0.00031498026247371797
894,0.3133291006088257,0.4437204599380493,1.0,0.88,0.00031498026247371797
895,0.31329724192619324,0.4470212459564209,1.0,0.86,0.00031498026247371797
896,0.31329259276390076,0.45041605830192566,1.0,0.85,0.00031498026247371797
897,0.31329411268234253,0.4525202512741089,1.0,0.85,0.00031498026247371797
898,0.313304603099823,0.45242345333099365,1.0,0.85,0.00031498026247371797
899,0.3132955729961395,0.45159712433815,1.0,0.85,0.00031498026247371797
900,0.313296914100647,0.45006048679351807,1.0,0.85,0.00031498026247371797
901,0.31329968571662903,0.44823744893074036,1.0,0.85,0.00031498026247371797
902,0.31329408288002014,0.4460289776325226,1.0,0.87,0.00031498026247371797
903,0.3132951557636261,0.4443727433681488,1.0,0.87,0.00031498026247371797
904,0.3132917284965515,0.44321566820144653,1.0,0.87,0.00031498026247371797
905,0.31329697370529175,0.4426371455192566,1.0,0.87,0.00031498026247371797
906,0.31329837441444397,0.44267213344573975,1.0,0.87,0.00031498026247371797
907,0.313294380903244,0.4432046115398407,1.0,0.87,0.00031498026247371797
908,0.31330108642578125,0.44445887207984924,1.0,0.86,0.00031498026247371797
909,0.3132976293563843,0.4459642469882965,1.0,0.86,0.00031498026247371797
910,0.31329846382141113,0.44724026322364807,1.0,0.86,0.00031498026247371797
911,0.3132975101470947,0.4484120309352875,1.0,0.85,0.00031498026247371797
912,0.3132915794849396,0.4493059813976288,1.0,0.85,0.00031498026247371797
913,0.31329232454299927,0.4498440623283386,1.0,0.85,0.00031498026247371797
914,0.313297301530838,0.45000430941581726,1.0,0.85,0.00031498026247371797
915,0.31329280138015747,0.4499283730983734,1.0,0.85,0.00031498026247371797
916,0.3132948577404022,0.4498942196369171,1.0,0.86,0.00031498026247371797
917,0.31329894065856934,0.44919323921203613,1.0,0.86,0.00031498026247371797
918,0.31330356001853943,0.4484984278678894,1.0,0.85,0.00031498026247371797
919,0.3132895529270172,0.4478048086166382,1.0,0.85,0.00031498026247371797
920,0.31329527497291565,0.44704630970954895,1.0,0.85,0.00031498026247371797
921,0.31329068541526794,0.4463762938976288,1.0,0.86,0.00031498026247371797
922,0.31329259276390076,0.44597816467285156,1.0,0.86,0.00031498026247371797
923,0.3132975399494171,0.44567978382110596,1.0,0.86,0.00031498026247371797
924,0.31329527497291565,0.4457453489303589,1.0,0.86,0.00031498026247371797
925,0.3132926821708679,0.44569751620292664,1.0,0.86,0.00031498026247371797
926,0.3132958710193634,0.44569888710975647,1.0,0.86,0.00031498026247371797
927,0.31329578161239624,0.445842444896698,1.0,0.86,0.00031498026247371797
928,0.31329599022865295,0.4461299479007721,1.0,0.86,0.00031498026247371797
929,0.313296914100647,0.4465706944465637,1.0,0.86,0.00031498026247371797
930,0.3132922649383545,0.44691285490989685,1.0,0.86,0.00031498026247371797
931,0.31329312920570374,0.4474164545536041,1.0,0.86,0.00031498026247371797
932,0.3132924437522888,0.4476660192012787,1.0,0.86,0.00031498026247371797
933,0.3132934868335724,0.44762948155403137,1.0,0.86,0.00031498026247371797
934,0.31329554319381714,0.44753485918045044,1.0,0.86,0.00031498026247371797
935,0.3132903575897217,0.4474116861820221,1.0,0.86,0.00031498026247371797
936,0.31330230832099915,0.4478467106819153,1.0,0.86,0.00031498026247371797
937,0.3132934868335724,0.4478881061077118,1.0,0.86,0.00031498026247371797
938,0.3133012652397156,0.4474056363105774,1.0,0.86,0.00031498026247371797
939,0.31330469250679016,0.447230726480484,1.0,0.86,0.00031498026247371797
940,0.31329602003097534,0.44744011759757996,1.0,0.85,0.0002499999999999997
941,0.31329262256622314,0.4472477436065674,1.0,0.85,0.0002499999999999997
942,0.31329384446144104,0.4470703601837158,1.0,0.86,0.0002499999999999997
943,0.31328967213630676,0.4469882845878601,1.0,0.85,0.0002499999999999997
944,0.31329208612442017,0.44700053334236145,1.0,0.85,0.0002499999999999997
945,0.31328967213630676,0.447020947933197,1.0,0.85,0.0002499999999999997
946,0.31329503655433655,0.4470699429512024,1.0,0.85,0.0002499999999999997
947,0.31329938769340515,0.4473456144332886,1.0,0.85,0.0002499999999999997
948,0.3132895529270172,0.4474347233772278,1.0,0.85,0.0002499999999999997
949,0.3132900297641754,0.4474826455116272,1.0,0.85,0.0002499999999999997
950,0.31329748034477234,0.4471983015537262,1.0,0.86,0.0002499999999999997
951,0.3132931590080261,0.44732657074928284,1.0,0.86,0.0002499999999999997
952,0.3132876753807068,0.4473460018634796,1.0,0.86,0.0002499999999999997
953,0.3132925033569336,0.44726139307022095,1.0,0.86,0.0002499999999999997
954,0.3133002519607544,0.4471967816352844,1.0,0.86,0.0002499999999999997
955,0.31329378485679626,0.447133332490921,1.0,0.86,0.0002499999999999997
956,0.31329166889190674,0.447168231010437,1.0,0.86,0.0002499999999999997
957,0.3132881820201874,0.447026789188385,1.0,0.86,0.0002499999999999997
958,0.3132988214492798,0.44679710268974304,1.0,0.86,0.0002499999999999997
959,0.31329625844955444,0.44641348719596863,1.0,0.86,0.0002499999999999997
960,0.3132912814617157,0.4460228979587555,1.0,0.86,0.0002499999999999997
961,0.31329384446144104,0.4455949664115906,1.0,0.86,0.0002499999999999997
962,0.31329232454299927,0.4451633393764496,1.0,0.87,0.0002499999999999997
963,0.313291996717453,0.4449518620967865,1.0,0.87,0.0002499999999999997
964,0.3132898509502411,0.4448821544647217,1.0,0.87,0.0002499999999999997
965,0.313291996717453,0.4448014795780182,1.0,0.87,0.0002499999999999997
966,0.3132975399494171,0.4450540542602539,1.0,0.87,0.0002499999999999997
967,0.3132954239845276,0.44550278782844543,1.0,0.87,0.0002499999999999997
968,0.31329429149627686,0.44646328687667847,1.0,0.86,0.0002499999999999997
969,0.3132886290550232,0.4472487270832062,1.0,0.85,0.0002499999999999997
970,0.3132869601249695,0.44805237650871277,1.0,0.85,0.0002499999999999997
971,0.3132990896701813,0.44851458072662354,1.0,0.85,0.0002499999999999997
972,0.31329622864723206,0.44827553629875183,1.0,0.86,0.0002499999999999997
973,0.31329697370529175,0.4475090801715851,1.0,0.86,0.0002499999999999997
974,0.31329822540283203,0.44713085889816284,1.0,0.86,0.0002499999999999997
975,0.3132910430431366,0.4465082883834839,1.0,0.86,0.0002499999999999997
976,0.3132929801940918,0.4457680881023407,1.0,0.87,0.0002499999999999997
977,0.31329095363616943,0.4451281726360321,1.0,0.87,0.0002499999999999997
978,0.3132900893688202,0.4448365867137909,1.0,0.87,0.0002499999999999997
979,0.3132922053337097,0.4445747435092926,1.0,0.87,0.0002499999999999997
980,0.3132995069026947,0.4445771872997284,1.0,0.87,0.0002499999999999997
981,0.31329190731048584,0.4447028636932373,1.0,0.87,0.0002499999999999997
982,0.3132912516593933,0.44494739174842834,1.0,0.87,0.0002499999999999997
983,0.3132888972759247,0.4452453851699829,1.0,0.87,0.0002499999999999997
984,0.3132982552051544,0.44557082653045654,1.0,0.86,0.0002499999999999997
985,0.3132898211479187,0.4458919167518616,1.0,0.86,0.0002499999999999997
986,0.31329452991485596,0.44620904326438904,1.0,0.87,0.0002499999999999997
987,0.3132859468460083,0.4463796317577362,1.0,0.87,0.0002499999999999997
988,0.3132907748222351,0.4465843141078949,1.0,0.87,0.0002499999999999997
989,0.31329357624053955,0.4466039538383484,1.0,0.87,0.0002499999999999997
990,0.3132956624031067,0.44708287715911865,1.0,0.86,0.0002499999999999997
991,0.3132878243923187,0.4472593069076538,1.0,0.86,0.0002499999999999997
992,0.31328830122947693,0.447361558675766,1.0,0.86,0.0002499999999999997
993,0.3132981061935425,0.4472012221813202,1.0,0.87,0.0002499999999999997
994,0.3132892847061157,0.4466714560985565,1.0,0.87,0.0002499999999999997
995,0.31328803300857544,0.4462754726409912,1.0,0.87,0.0002499999999999997
996,0.31329217553138733,0.44588565826416016,1.0,0.87,0.0002499999999999997
997,0.3132913112640381,0.44565868377685547,1.0,0.87,0.0002499999999999997
998,0.3132917881011963,0.44549360871315,1.0,0.87,0.0002499999999999997
999,0.31328922510147095,0.445461630821228,1.0,0.87,0.0002499999999999997
1000,0.313291072845459,0.4454613924026489,1.0,0.87,0.0002499999999999997
1001,0.31329476833343506,0.445603609085083,1.0,0.87,0.0002499999999999997
1002,0.31329381465911865,0.44599276781082153,1.0,0.86,0.0002499999999999997
1003,0.3132934868335724,0.4461606740951538,1.0,0.86,0.0002499999999999997
1004,0.31328773498535156,0.4463195502758026,1.0,0.86,0.0002499999999999997
1005,0.3132927417755127,0.44616058468818665,1.0,0.86,0.0002499999999999997
1006,0.31329020857810974,0.4460959732532501,1.0,0.87,0.0002499999999999997
1007,0.31328946352005005,0.44603657722473145,1.0,0.87,0.0002499999999999997
1008,0.3132944405078888,0.44601771235466003,1.0,0.87,0.0002499999999999997
1009,0.3132930099964142,0.44598010182380676,1.0,0.87,0.0002499999999999997
1010,0.31328698992729187,0.44599732756614685,1.0,0.87,0.0002499999999999997
1011,0.31329044699668884,0.44599583745002747,1.0,0.87,0.0002499999999999997
1012,0.3132862150669098,0.4459899961948395,1.0,0.87,0.0002499999999999997
1013,0.31329137086868286,0.4461264908313751,1.0,0.86,0.0002499999999999997
1014,0.31329020857810974,0.4461784362792969,1.0,0.86,0.0002499999999999997
1015,0.31328967213630676,0.4462238550186157,1.0,0.86,0.0002499999999999997
1016,0.31328943371772766,0.44611695408821106,1.0,0.86,0.0002499999999999997
1017,0.3133373558521271,0.4459868371486664,1.0,0.87,0.0002499999999999997
1018,0.3132861852645874,0.4461735486984253,1.0,0.85,0.0002499999999999997
1019,0.3132880926132202,0.4463014304637909,1.0,0.85,0.0002499999999999997
1020,0.31328946352005005,0.4465063214302063,1.0,0.85,0.0002499999999999997
1021,0.31329235434532166,0.4468149244785309,1.0,0.85,0.0002499999999999997
1022,0.31329044699668884,0.446939617395401,1.0,0.85,0.0002499999999999997
1023,0.3132919669151306,0.4471186101436615,1.0,0.85,0.0002499999999999997
1024,0.31329426169395447,0.4472285211086273,1.0,0.85,0.0002499999999999997
1025,0.31329014897346497,0.4473104178905487,1.0,0.85,0.0002499999999999997
1026,0.31329232454299927,0.4470841586589813,1.0,0.86,0.0002499999999999997
1027,0.31328850984573364,0.4468851387500763,1.0,0.86,0.0002499999999999997
1028,0.31328827142715454,0.44686082005500793,1.0,0.86,0.0002499999999999997
1029,0.31329041719436646,0.4469841420650482,1.0,0.86,0.0002499999999999997
1030,0.31328555941581726,0.4471696615219116,1.0,0.86,0.0002499999999999997
1031,0.3132927119731903,0.4467826187610626,1.0,0.86,0.0002499999999999997
1032,0.3132901191711426,0.4464940130710602,1.0,0.86,0.0002499999999999997
1033,0.3132907748222351,0.44614166021347046,1.0,0.87,0.0002499999999999997
1034,0.31329095363616943,0.44522762298583984,1.0,0.87,0.0002499999999999997
1035,0.3132951259613037,0.44455796480178833,1.0,0.87,0.0002499999999999997
1036,0.31328949332237244,0.44415920972824097,1.0,0.87,0.0002499999999999997
1037,0.3132900297641754,0.4443342983722687,1.0,0.87,0.0002499999999999997
1038,0.313291996717453,0.4447574317455292,1.0,0.87,0.0002499999999999997
1039,0.31329014897346497,0.4450862407684326,1.0,0.87,0.0002499999999999997
1040,0.31329110264778137,0.4453389644622803,1.0,0.87,0.0002499999999999997
1041,0.31329402327537537,0.4458814263343811,1.0,0.86,0.0002499999999999997
1042,0.3132902979850769,0.4464665353298187,1.0,0.86,0.0002499999999999997
1043,0.31329116225242615,0.4469988942146301,1.0,0.86,0.0002499999999999997
1044,0.31328994035720825,0.4471154510974884,1.0,0.86,0.0002499999999999997
1045,0.3132857084274292,0.4470653533935547,1.0,0.86,0.0002499999999999997
1046,0.3132871687412262,0.44699081778526306,1.0,0.86,0.0002499999999999997
1047,0.31328898668289185,0.4468833804130554,1.0,0.86,0.0002499999999999997
1048,0.3132901191711426,0.4466749429702759,1.0,0.86,0.0002499999999999997
1049,0.3132886588573456,0.4464370310306549,1.0,0.86,0.0002499999999999997
1050,0.3132915198802948,0.4459454417228699,1.0,0.86,0.0002499999999999997
1051,0.31329670548439026,0.4461570978164673,1.0,0.86,0.0002499999999999997
1052,0.313289076089859,0.44638434052467346,1.0,0.86,0.0002499999999999997
1053,0.31328919529914856,0.446685254573822,1.0,0.86,0.00019842513149602464
1054,0.313289076089859,0.446658730506897,1.0,0.86,0.00019842513149602464
1055,0.3132861256599426,0.44658318161964417,1.0,0.86,0.00019842513149602464
1056,0.3132892847061157,0.4464503526687622,1.0,0.86,0.00019842513149602464
1057,0.31328773498535156,0.44627803564071655,1.0,0.86,0.00019842513149602464
1058,0.3132900893688202,0.44612622261047363,1.0,0.86,0.00019842513149602464
1059,0.31328755617141724,0.44584542512893677,1.0,0.86,0.00019842513149602464
1060,0.31329867243766785,0.445963978767395,1.0,0.86,0.00019842513149602464
1061,0.31329262256622314,0.44614437222480774,1.0,0.86,0.00019842513149602464
1062,0.3132924437522888,0.4460347294807434,1.0,0.87,0.00019842513149602464
1063,0.31329554319381714,0.44603604078292847,1.0,0.87,0.00019842513149602464
1064,0.3132864236831665,0.4459877908229828,1.0,0.87,0.00019842513149602464
1065,0.3132920563220978,0.4458485543727875,1.0,0.87,0.00019842513149602464
1066,0.31328925490379333,0.445785254240036,1.0,0.87,0.00019842513149602464
1067,0.31328722834587097,0.4458369314670563,1.0,0.87,0.00019842513149602464
1068,0.3132925033569336,0.44599995017051697,1.0,0.87,0.00019842513149602464
1069,0.3132905066013336,0.4459685981273651,1.0,0.87,0.00019842513149602464
1070,0.31329110264778137,0.445992648601532,1.0,0.87,0.00019842513149602464
1071,0.31328660249710083,0.44597628712654114,1.0,0.87,0.00019842513149602464
1072,0.3132894039154053,0.4459046423435211,1.0,0.87,0.00019842513149602464
1073,0.3132968544960022,0.44522425532341003,1.0,0.87,0.00019842513149602464
1074,0.3132907748222351,0.44501084089279175,1.0,0.87,0.00019842513149602464
1075,0.31328749656677246,0.4449167549610138,1.0,0.87,0.00019842513149602464
1076,0.31329330801963806,0.44500213861465454,1.0,0.87,0.00019842513149602464
1077,0.31329238414764404,0.44526737928390503,1.0,0.87,0.00019842513149602464
1078,0.3132917881011963,0.44560012221336365,1.0,0.87,0.00019842513149602464
1079,0.31329524517059326,0.4454585015773773,1.0,0.87,0.00019842513149602464
1080,0.31328803300857544,0.4455697238445282,1.0,0.87,0.00019842513149602464
1081,0.3132869005203247,0.44568130373954773,1.0,0.87,0.00019842513149602464
1082,0.3132897615432739,0.4458286762237549,1.0,0.87,0.00019842513149602464
1083,0.31329014897346497,0.44604209065437317,1.0,0.87,0.00019842513149602464
1084,0.31328627467155457,0.4461542069911957,1.0,0.86,0.00019842513149602464
1085,0.3132902681827545,0.44593343138694763,1.0,0.87,0.00019842513149602464
1086,0.31329265236854553,0.4459725618362427,1.0,0.86,0.00019842513149602464
1087,0.3132932186126709,0.4459531903266907,1.0,0.86,0.00019842513149602464
1088,0.31329089403152466,0.44601210951805115,1.0,0.86,0.00019842513149602464
1089,0.31329068541526794,0.44624683260917664,1.0,0.86,0.00019842513149602464
1090,0.3132881820201874,0.4464553892612457,1.0,0.86,0.00019842513149602464
1091,0.31328731775283813,0.44657057523727417,1.0,0.86,0.00019842513149602464
1092,0.31329092383384705,0.446485698223114,1.0,0.86,0.00019842513149602464
1093,0.31328755617141724,0.4464119076728821,1.0,0.86,0.00019842513149602464
1094,0.31328558921813965,0.4461984634399414,1.0,0.86,0.00019842513149602464
1095,0.3132895231246948,0.44621098041534424,1.0,0.86,0.00019842513149602464
1096,0.31329038739204407,0.4464434087276459,1.0,0.86,0.00019842513149602464
1097,0.31328901648521423,0.4464294910430908,1.0,0.86,0.00019842513149602464
1098,0.3132879137992859,0.4463709592819214,1.0,0.86,0.00019842513149602464
1099,0.3132863938808441,0.4463595449924469,1.0,0.86,0.00019842513149602464
1100,0.3132897615432739,0.44632190465927124,1.0,0.86,0.00019842513149602464
1101,0.3132881820201874,0.44660666584968567,1.0,0.86,0.00019842513149602464
1102,0.31328722834587097,0.4471127390861511,1.0,0.86,0.00019842513149602464
1103,0.31329280138015747,0.44723308086395264,1.0,0.86,0.00019842513149602464
1104,0.3132915794849396,0.4475790858268738,1.0,0.86,0.00019842513149602464
1105,0.3132892847061157,0.44779127836227417,1.0,0.86,0.00019842513149602464
1106,0.3132910430431366,0.4476570188999176,1.0,0.86,0.00019842513149602464
1107,0.3132900595664978,0.44737040996551514,1.0,0.86,0.00019842513149602464
1108,0.31329450011253357,0.44671374559402466,1.0,0.86,0.00019842513149602464
1109,0.3132924735546112,0.4457204341888428,1.0,0.87,0.00019842513149602464
1110,0.31328579783439636,0.44477611780166626,1.0,0.87,0.00019842513149602464
1111,0.31328609585762024,0.44410279393196106,1.0,0.87,0.00019842513149602464
1112,0.31328657269477844,0.4436842203140259,1.0,0.87,0.00019842513149602464
1113,0.3132880628108978,0.4434891641139984,1.0,0.87,0.00019842513149602464
1114,0.3132910430431366,0.44353345036506653,1.0,0.87,0.00019842513149602464
1115,0.31328722834587097,0.44380298256874084,1.0,0.87,0.00019842513149602464
1116,0.31329065561294556,0.4440295696258545,1.0,0.87,0.00019842513149602464
1117,0.3132905662059784,0.4444974660873413,1.0,0.87,0.00019842513149602464
1118,0.31328728795051575,0.4450675845146179,1.0,0.87,0.00019842513149602464
1119,0.3132959306240082,0.4460296630859375,1.0,0.87,0.00019842513149602464
1120,0.3132854402065277,0.44686490297317505,1.0,0.86,0.00019842513149602464
1121,0.3132932782173157,0.4478752911090851,1.0,0.86,0.00019842513149602464
1122,0.31328505277633667,0.4487074911594391,1.0,0.85,0.00019842513149602464
1123,0.31328627467155457,0.4493909776210785,1.0,0.85,0.00019842513149602464
1124,0.3132840394973755,0.4497842490673065,1.0,0.85,0.00019842513149602464
1125,0.3132871389389038,0.44990861415863037,1.0,0.85,0.00019842513149602464
1126,0.31328627467155457,0.4498033821582794,1.0,0.85,0.00019842513149602464
1127,0.31328722834587097,0.4496310353279114,1.0,0.85,0.00019842513149602464
1128,0.313291072845459,0.44938042759895325,1.0,0.86,0.00019842513149602464
1129,0.313287615776062,0.44874775409698486,1.0,0.86,0.00019842513149602464
1130,0.3132927417755127,0.44741925597190857,1.0,0.86,0.00019842513149602464
1131,0.31329089403152466,0.4465213716030121,1.0,0.86,0.00019842513149602464
1132,0.3132910430431366,0.4454491138458252,1.0,0.86,0.00019842513149602464
1133,0.3132840394973755,0.44459646940231323,1.0,0.87,0.00019842513149602464
1134,0.31328776478767395,0.444203644990921,1.0,0.87,0.00019842513149602464
1135,0.31328722834587097,0.44400477409362793,1.0,0.87,0.00019842513149602464
1136,0.31328919529914856,0.44399189949035645,1.0,0.87,0.00019842513149602464
1137,0.3132864236831665,0.444362998008728,1.0,0.87,0.00019842513149602464
1138,0.31329476833343506,0.4453692138195038,1.0,0.87,0.00019842513149602464
1139,0.3133220970630646,0.44611209630966187,1.0,0.86,0.00019842513149602464
1140,0.31329047679901123,0.44715744256973267,1.0,0.86,0.00019842513149602464
1141,0.3132893443107605,0.44794195890426636,1.0,0.85,0.00019842513149602464
1142,0.31329071521759033,0.4479019045829773,1.0,0.85,0.00019842513149602464
1143,0.3132897615432739,0.4477044641971588,1.0,0.86,0.00019842513149602464
1144,0.3132841885089874,0.4474145472049713,1.0,0.86,0.00019842513149602464
1145,0.31329554319381714,0.4467925727367401,1.0,0.86,0.00019842513149602464
1146,0.31329259276390076,0.4459918737411499,1.0,0.87,0.00019842513149602464
1147,0.31328636407852173,0.44550377130508423,1.0,0.87,0.00019842513149602464
1148,0.31328484416007996,0.44529232382774353,1.0,0.87,0.00019842513149602464
1149,0.31328916549682617,0.44556063413619995,1.0,0.87,0.00019842513149602464
1150,0.3132902979850769,0.4459124803543091,1.0,0.87,0.00019842513149602464
1151,0.31328651309013367,0.4464445412158966,1.0,0.87,0.00019842513149602464
1152,0.3132997155189514,0.44722965359687805,1.0,0.86,0.00019842513149602464
1153,0.3132852017879486,0.4477881193161011,1.0,0.86,0.00019842513149602464
1154,0.3132895529270172,0.44805243611335754,1.0,0.85,0.00015749013123685888
1155,0.31329238414764404,0.4481687843799591,1.0,0.85,0.00015749013123685888
1156,0.31329068541526794,0.44789543747901917,1.0,0.85,0.00015749013123685888
1157,0.31328874826431274,0.44768840074539185,1.0,0.86,0.00015749013123685888
1158,0.313286691904068,0.447439581155777,1.0,0.86,0.00015749013123685888
1159,0.313289999961853,0.4469063878059387,1.0,0.86,0.00015749013123685888
1160,0.3132888972759247,0.4464573264122009,1.0,0.87,0.00015749013123685888
1161,0.31328651309013367,0.4460870623588562,1.0,0.87,0.00015749013123685888
1162,0.31329071521759033,0.4462181031703949,1.0,0.87,0.00015749013123685888
1163,0.3132840096950531,0.44629108905792236,1.0,0.87,0.00015749013123685888
1164,0.31329289078712463,0.44637298583984375,1.0,0.87,0.00015749013123685888
1165,0.3132919669151306,0.4463724195957184,1.0,0.87,0.00015749013123685888
1166,0.31328511238098145,0.446481317281723,1.0,0.87,0.00015749013123685888
1167,0.31328916549682617,0.44647693634033203,1.0,0.87,0.00015749013123685888
1168,0.3132859468460083,0.4464167654514313,1.0,0.87,0.00015749013123685888
1169,0.3132854998111725,0.4463963806629181,1.0,0.87,0.00015749013123685888
1170,0.31329354643821716,0.4459115266799927,1.0,0.87,0.00015749013123685888
1171,0.31330394744873047,0.445622056722641,1.0,0.87,0.00015749013123685888
1172,0.3132847547531128,0.44533732533454895,1.0,0.87,0.00015749013123685888
1173,0.31328484416007996,0.44504979252815247,1.0,0.87,0.00015749013123685888
1174,0.31328606605529785,0.4450441598892212,1.0,0.87,0.00015749013123685888
1175,0.3132832646369934,0.44507867097854614,1.0,0.87,0.00015749013123685888
1176,0.3132900297641754,0.4454004764556885,1.0,0.87,0.00015749013123685888
1177,0.313289999961853,0.4457094967365265,1.0,0.87,0.00015749013123685888
1178,0.3132939636707306,0.44643741846084595,1.0,0.86,0.00015749013123685888
1179,0.313285768032074,0.4470115303993225,1.0,0.86,0.00015749013123685888
1180,0.3132845163345337,0.44754624366760254,1.0,0.86,0.00015749013123685888
1181,0.31328654289245605,0.44784656167030334,1.0,0.86,0.00015749013123685888
1182,0.3132893443107605,0.44813698530197144,1.0,0.86,0.00015749013123685888
1183,0.3132922649383545,0.44852975010871887,1.0,0.86,0.00015749013123685888
1184,0.3132878839969635,0.4484768807888031,1.0,0.86,0.00015749013123685888
1185,0.31328585743904114,0.44808804988861084,1.0,0.86,0.00015749013123685888
1186,0.3132852613925934,0.44776734709739685,1.0,0.86,0.00015749013123685888
1187,0.31328603625297546,0.44742077589035034,1.0,0.86,0.00015749013123685888
1188,0.31328511238098145,0.44706737995147705,1.0,0.86,0.00015749013123685888
1189,0.3132844865322113,0.44673866033554077,1.0,0.86,0.00015749013123685888
1190,0.3132874369621277,0.4462655782699585,1.0,0.87,0.00015749013123685888
1191,0.3132924735546112,0.44536685943603516,1.0,0.87,0.00015749013123685888
1192,0.31328585743904114,0.44476890563964844,1.0,0.87,0.00015749013123685888
1193,0.3132881820201874,0.44441187381744385,1.0,0.87,0.00015749013123685888
1194,0.3132873773574829,0.44423502683639526,1.0,0.87,0.00015749013123685888
1195,0.313286155462265,0.4441310167312622,1.0,0.87,0.00015749013123685888
1196,0.31329160928726196,0.44420701265335083,1.0,0.87,0.00015749013123685888
1197,0.31328532099723816,0.4443206787109375,1.0,0.87,0.00015749013123685888
1198,0.31328701972961426,0.4444693326950073,1.0,0.87,0.00015749013123685888
1199,0.3132900893688202,0.44472745060920715,1.0,0.87,0.00015749013123685888
1200,0.3132873475551605,0.44486451148986816,1.0,0.87,0.00015749013123685888
1201,0.31328994035720825,0.4450721740722656,1.0,0.87,0.00015749013123685888
1202,0.31328675150871277,0.44517841935157776,1.0,0.87,0.00015749013123685888
1203,0.313285231590271,0.44534698128700256,1.0,0.87,0.00015749013123685888
1204,0.3132885694503784,0.44544219970703125,1.0,0.87,0.00015749013123685888
1205,0.3132849931716919,0.44552192091941833,1.0,0.87,0.00015749013123685888
1206,0.31328389048576355,0.4457024335861206,1.0,0.87,0.00015749013123685888
1207,0.31328627467155457,0.44591647386550903,1.0,0.87,0.00015749013123685888
1208,0.3132837414741516,0.44608059525489807,1.0,0.86,0.00015749013123685888
1209,0.3132874369621277,0.4463716447353363,1.0,0.86,0.00015749013123685888
1210,0.3132880926132202,0.44651368260383606,1.0,0.86,0.00015749013123685888
1211,0.3132854998111725,0.4465043544769287,1.0,0.86,0.00015749013123685888
1212,0.31328120827674866,0.44644221663475037,1.0,0.86,0.00015749013123685888
1213,0.3132854402065277,0.4464488923549652,1.0,0.86,0.00015749013123685888
1214,0.3132842779159546,0.44648483395576477,1.0,0.86,0.00015749013123685888
1215,0.3132890462875366,0.44659996032714844,1.0,0.86,0.00015749013123685888
1216,0.3132905066013336,0.44662684202194214,1.0,0.86,0.00015749013123685888
1217,0.3132856786251068,0.4468383491039276,1.0,0.86,0.00015749013123685888
1218,0.3132908344268799,0.4469364881515503,1.0,0.86,0.00015749013123685888
1219,0.31328320503234863,0.4469924569129944,1.0,0.86,0.00015749013123685888
1220,0.31328681111335754,0.44677215814590454,1.0,0.86,0.00015749013123685888
1221,0.3132861852645874,0.4464583098888397,1.0,0.86,0.00015749013123685888
1222,0.3132856488227844,0.4462207555770874,1.0,0.86,0.00015749013123685888
1223,0.3132855296134949,0.4458780586719513,1.0,0.86,0.00015749013123685888
1224,0.31328675150871277,0.4455626606941223,1.0,0.86,0.00015749013123685888
1225,0.31328803300857544,0.44503211975097656,1.0,0.87,0.00015749013123685888
1226,0.31328722834587097,0.44461318850517273,1.0,0.87,0.00015749013123685888
1227,0.3132852613925934,0.4443526566028595,1.0,0.87,0.00015749013123685888
1228,0.3132840692996979,0.44408103823661804,1.0,0.87,0.00015749013123685888
1229,0.31328749656677246,0.4440501034259796,1.0,0.87,0.00015749013123685888
1230,0.31328362226486206,0.4440073072910309,1.0,0.87,0.00015749013123685888
1231,0.3132849931716919,0.4441092610359192,1.0,0.87,0.00015749013123685888
1232,0.31328675150871277,0.4443390965461731,1.0,0.87,0.00015749013123685888
1233,0.3132990002632141,0.4449281394481659,1.0,0.87,0.00015749013123685888
1234,0.31328728795051575,0.4454489052295685,1.0,0.87,0.00015749013123685888
1235,0.3132878541946411,0.44595226645469666,1.0,0.86,0.00015749013123685888
1236,0.3132842183113098,0.44649162888526917,1.0,0.86,0.00015749013123685888
1237,0.31328949332237244,0.4466254413127899,1.0,0.86,0.00015749013123685888
1238,0.3132849931716919,0.44659659266471863,1.0,0.86,0.00015749013123685888
1239,0.31328555941581726,0.4465142488479614,1.0,0.86,0.00015749013123685888
1240,0.3132903277873993,0.4467608630657196,1.0,0.86,0.00015749013123685888
1241,0.31328362226486206,0.44698628783226013,1.0,0.86,0.00015749013123685888
1242,0.3132864534854889,0.44710299372673035,1.0,0.86,0.00015749013123685888
1243,0.31328868865966797,0.447225421667099,1.0,0.86,0.00015749013123685888
1244,0.31328728795051575,0.4471612870693207,1.0,0.86,0.00015749013123685888
1245,0.31328675150871277,0.44686388969421387,1.0,0.86,0.00015749013123685888
1246,0.31328538060188293,0.4466342628002167,1.0,0.86,0.00015749013123685888
1247,0.31328850984573364,0.44658538699150085,1.0,0.86,0.00015749013123685888
1248,0.3132886290550232,0.44653794169425964,1.0,0.86,0.00015749013123685888
1249,0.31328678131103516,0.4463788568973541,1.0,0.86,0.00015749013123685888
1250,0.3132837414741516,0.44634562730789185,1.0,0.86,0.00015749013123685888
1251,0.31328362226486206,0.44606223702430725,1.0,0.87,0.00015749013123685888
1252,0.31328850984573364,0.44575318694114685,1.0,0.87,0.00015749013123685888
1253,0.31328439712524414,0.445515513420105,1.0,0.87,0.00015749013123685888
1254,0.313286155462265,0.44545304775238037,1.0,0.87,0.00015749013123685888
1255,0.3132827877998352,0.44530749320983887,1.0,0.87,0.00012499999999999976
1256,0.31328579783439636,0.44531697034835815,1.0,0.87,0.00012499999999999976
1257,0.3132863938808441,0.4452947676181793,1.0,0.87,0.00012499999999999976
1258,0.31328484416007996,0.44531872868537903,1.0,0.87,0.00012499999999999976
1259,0.31329023838043213,0.44533637166023254,1.0,0.87,0.00012499999999999976
1260,0.3132858872413635,0.44540178775787354,1.0,0.87,0.00012499999999999976
1261,0.31328293681144714,0.44543835520744324,1.0,0.87,0.00012499999999999976
1262,0.313287615776062,0.44548487663269043,1.0,0.87,0.00012499999999999976
1263,0.3132859766483307,0.445725679397583,1.0,0.87,0.00012499999999999976
1264,0.31328198313713074,0.4458490312099457,1.0,0.87,0.00012499999999999976
1265,0.31328874826431274,0.4460327923297882,1.0,0.86,0.00012499999999999976
1266,0.31328749656677246,0.4461950957775116,1.0,0.86,0.00012499999999999976
1267,0.3132830560207367,0.4463047385215759,1.0,0.86,0.00012499999999999976
1268,0.3132852613925934,0.4464767873287201,1.0,0.86,0.00012499999999999976
1269,0.3132855296134949,0.44652560353279114,1.0,0.86,0.00012499999999999976
1270,0.3132825195789337,0.44656458497047424,1.0,0.86,0.00012499999999999976
1271,0.31328457593917847,0.4465540945529938,1.0,0.86,0.00012499999999999976
1272,0.313285231590271,0.44657012820243835,1.0,0.86,0.00012499999999999976
1273,0.31329086422920227,0.4467647671699524,1.0,0.86,0.00012499999999999976
1274,0.31328514218330383,0.4468773305416107,1.0,0.86,0.00012499999999999976
1275,0.31328698992729187,0.44705596566200256,1.0,0.86,0.00012499999999999976
1276,0.3132835030555725,0.44692450761795044,1.0,0.86,0.00012499999999999976
1277,0.3132842183113098,0.4469510316848755,1.0,0.86,0.00012499999999999976
1278,0.31328704953193665,0.44689396023750305,1.0,0.86,0.00012499999999999976
1279,0.3132849931716919,0.44690680503845215,1.0,0.86,0.00012499999999999976
1280,0.3132849633693695,0.44679149985313416,1.0,0.86,0.00012499999999999976
1281,0.31328776478767395,0.4465675354003906,1.0,0.86,0.00012499999999999976
1282,0.31328654289245605,0.44620463252067566,1.0,0.86,0.00012499999999999976
1283,0.3132844567298889,0.4458880126476288,1.0,0.86,0.00012499999999999976
1284,0.3132860064506531,0.44591328501701355,1.0,0.86,0.00012499999999999976
1285,0.3132903575897217,0.44585365056991577,1.0,0.86,0.00012499999999999976
1286,0.3132849931716919,0.4458599388599396,1.0,0.86,0.00012499999999999976
1287,0.3132842779159546,0.44588643312454224,1.0,0.86,0.00012499999999999976
1288,0.31328800320625305,0.4458698332309723,1.0,0.86,0.00012499999999999976
1289,0.31328943371772766,0.4461401402950287,1.0,0.86,0.00012499999999999976
1290,0.3132881224155426,0.44643983244895935,1.0,0.86,0.00012499999999999976
1291,0.3132847547531128,0.44666728377342224,1.0,0.86,0.00012499999999999976
1292,0.3132838010787964,0.44689643383026123,1.0,0.86,0.00012499999999999976
1293,0.3132936358451843,0.44762805104255676,1.0,0.86,0.00012499999999999976
1294,0.31328943371772766,0.448167085647583,1.0,0.86,0.00012499999999999976
1295,0.3132845163345337,0.4483645558357239,1.0,0.86,0.00012499999999999976
1296,0.31329038739204407,0.44837886095046997,1.0,0.86,0.00012499999999999976
1297,0.3132864832878113,0.4482530951499939,1.0,0.86,0.00012499999999999976
1298,0.3132868707180023,0.4480343759059906,1.0,0.86,0.00012499999999999976
1299,0.31329047679901123,0.4477962851524353,1.0,0.86,0.00012499999999999976
1300,0.3132888078689575,0.4474307894706726,1.0,0.86,0.00012499999999999976
1301,0.31328415870666504,0.4470131993293762,1.0,0.86,0.00012499999999999976
1302,0.3132818341255188,0.44672027230262756,1.0,0.86,0.00012499999999999976
1303,0.3132840394973755,0.4465242326259613,1.0,0.86,0.00012499999999999976
1304,0.313284695148468,0.44638919830322266,1.0,0.86,0.00012499999999999976
1305,0.31328895688056946,0.4463194012641907,1.0,0.86,0.00012499999999999976
1306,0.3132822513580322,0.4462656080722809,1.0,0.86,0.00012499999999999976
1307,0.3132891356945038,0.4459013044834137,1.0,0.86,0.00012499999999999976
1308,0.31328442692756653,0.4456014931201935,1.0,0.86,0.00012499999999999976
1309,0.31329047679901123,0.44548550248146057,1.0,0.86,0.00012499999999999976
1310,0.3132874369621277,0.4455409348011017,1.0,0.86,0.00012499999999999976
1311,0.3132860064506531,0.4457964301109314,1.0,0.86,0.00012499999999999976
1312,0.3132886290550232,0.44618648290634155,1.0,0.86,0.00012499999999999976
1313,0.31328877806663513,0.44641315937042236,1.0,0.86,0.00012499999999999976
1314,0.3132818937301636,0.4465988278388977,1.0,0.86,0.00012499999999999976
1315,0.31329140067100525,0.44650545716285706,1.0,0.86,0.00012499999999999976
1316,0.3132833242416382,0.44644027948379517,1.0,0.86,0.00012499999999999976
1317,0.3132859468460083,0.4462638795375824,1.0,0.86,0.00012499999999999976
1318,0.3132845163345337,0.4461156129837036,1.0,0.86,0.00012499999999999976
1319,0.31328538060188293,0.4459238350391388,1.0,0.86,0.00012499999999999976
1320,0.31328311562538147,0.44581738114356995,1.0,0.86,0.00012499999999999976
1321,0.3132839500904083,0.44571635127067566,1.0,0.86,0.00012499999999999976
1322,0.3132832944393158,0.44567447900772095,1.0,0.86,0.00012499999999999976
1323,0.313285231590271,0.44565892219543457,1.0,0.86,0.00012499999999999976
1324,0.3132839500904083,0.44547712802886963,1.0,0.86,0.00012499999999999976
1325,0.313283234834671,0.4453374147415161,1.0,0.86,0.00012499999999999976
1326,0.3132835626602173,0.44522950053215027,1.0,0.86,0.00012499999999999976
1327,0.3132869601249695,0.4451454281806946,1.0,0.87,0.00012499999999999976
1328,0.3132835328578949,0.44508370757102966,1.0,0.87,0.00012499999999999976
1329,0.31328898668289185,0.44514575600624084,1.0,0.87,0.00012499999999999976
1330,0.3132830858230591,0.44527289271354675,1.0,0.86,0.00012499999999999976
1331,0.3132835328578949,0.44554051756858826,1.0,0.86,0.00012499999999999976
1332,0.31328749656677246,0.4456980228424072,1.0,0.86,0.00012499999999999976
1333,0.31328609585762024,0.44562003016471863,1.0,0.86,0.00012499999999999976
1334,0.313284307718277,0.44560810923576355,1.0,0.86,0.00012499999999999976
1335,0.31328269839286804,0.44566208124160767,1.0,0.86,0.00012499999999999976
1336,0.3132830560207367,0.44572120904922485,1.0,0.86,0.00012499999999999976
1337,0.31328150629997253,0.44575580954551697,1.0,0.86,0.00012499999999999976
1338,0.31328538060188293,0.4458686113357544,1.0,0.86,0.00012499999999999976
1339,0.3132849633693695,0.44581282138824463,1.0,0.86,0.00012499999999999976
1340,0.3132869601249695,0.4456571638584137,1.0,0.86,0.00012499999999999976
1341,0.3132864236831665,0.44555291533470154,1.0,0.86,0.00012499999999999976
1342,0.3132827579975128,0.4455549716949463,1.0,0.86,0.00012499999999999976
1343,0.3132847249507904,0.4455646574497223,1.0,0.86,0.00012499999999999976
1344,0.31328293681144714,0.44569218158721924,1.0,0.86,0.00012499999999999976
1345,0.31328558921813965,0.4460051655769348,1.0,0.86,0.00012499999999999976
1346,0.31328248977661133,0.4462224543094635,1.0,0.86,0.00012499999999999976
1347,0.3132861852645874,0.4464605748653412,1.0,0.86,0.00012499999999999976
1348,0.3132832646369934,0.44659891724586487,1.0,0.86,0.00012499999999999976
1349,0.3132990896701813,0.446694552898407,1.0,0.86,0.00012499999999999976
1350,0.31328722834587097,0.4464399814605713,1.0,0.86,0.00012499999999999976
1351,0.3132888376712799,0.44612324237823486,1.0,0.86,0.00012499999999999976
1352,0.3132874369621277,0.4458779990673065,1.0,0.86,0.00012499999999999976
1353,0.3132851719856262,0.44572097063064575,1.0,0.86,0.00012499999999999976
1354,0.313285768032074,0.4456392228603363,1.0,0.86,0.00012499999999999976
1355,0.3132905662059784,0.44555458426475525,1.0,0.86,0.00012499999999999976
1356,0.31328392028808594,0.4454447627067566,1.0,0.86,0.0001
1357,0.31328341364860535,0.4455329477787018,1.0,0.86,0.0001
1358,0.31328094005584717,0.4457206726074219,1.0,0.86,0.0001
1359,0.31328362226486206,0.44589516520500183,1.0,0.86,0.0001
1360,0.3132840394973755,0.44613903760910034,1.0,0.86,0.0001
1361,0.31328698992729187,0.44653359055519104,1.0,0.86,0.0001
1362,0.31328320503234863,0.446902871131897,1.0,0.86,0.0001
1363,0.31328606605529785,0.4471557140350342,1.0,0.86,0.0001
1364,0.3132845163345337,0.44731971621513367,1.0,0.86,0.0001
1365,0.3132839500904083,0.44742733240127563,1.0,0.86,0.0001
1366,0.3132838010787964,0.4473646879196167,1.0,0.86,0.0001
1367,0.3132869601249695,0.4471855163574219,1.0,0.86,0.0001
1368,0.31328070163726807,0.44687479734420776,1.0,0.86,0.0001
1369,0.3132838010787964,0.4466744363307953,1.0,0.86,0.0001
1370,0.31328627467155457,0.4463801980018616,1.0,0.86,0.0001
1371,0.31328728795051575,0.44614705443382263,1.0,0.86,0.0001
1372,0.31328150629997253,0.4459908604621887,1.0,0.86,0.0001
1373,0.31328457593917847,0.445881724357605,1.0,0.86,0.0001
1374,0.3132842481136322,0.44580981135368347,1.0,0.86,0.0001
1375,0.31328439712524414,0.44557803869247437,1.0,0.86,0.0001
1376,0.31328460574150085,0.44543731212615967,1.0,0.86,0.0001
1377,0.31328678131103516,0.44542601704597473,1.0,0.86,0.0001
1378,0.31328341364860535,0.4453539550304413,1.0,0.86,0.0001
1379,0.31328240036964417,0.44537031650543213,1.0,0.86,0.0001
1380,0.31328824162483215,0.4453454613685608,1.0,0.86,0.0001
1381,0.31328096985816956,0.44529613852500916,1.0,0.86,0.0001
1382,0.3132835030555725,0.4452733099460602,1.0,0.86,0.0001
1383,0.31328749656677246,0.44534796476364136,1.0,0.86,0.0001
1384,0.3132868707180023,0.4454694390296936,1.0,0.86,0.0001
1385,0.3132871687412262,0.44552215933799744,1.0,0.86,0.0001
1386,0.313283234834671,0.44549310207366943,1.0,0.86,0.0001
1387,0.313285768032074,0.44545048475265503,1.0,0.86,0.0001
1388,0.3132804036140442,0.4454648196697235,1.0,0.86,0.0001
1389,0.3132839798927307,0.4453987777233124,1.0,0.86,0.0001
1390,0.31328651309013367,0.44556304812431335,1.0,0.86,0.0001
1391,0.31328466534614563,0.4456607699394226,1.0,0.86,0.0001
1392,0.3132878839969635,0.44552817940711975,1.0,0.86,0.0001
1393,0.31328538060188293,0.44514331221580505,1.0,0.87,0.0001
1394,0.3132828176021576,0.44485968351364136,1.0,0.87,0.0001
1395,0.3132839500904083,0.44466477632522583,1.0,0.87,0.0001
1396,0.31328320503234863,0.44445544481277466,1.0,0.87,0.0001
1397,0.313285768032074,0.444357305765152,1.0,0.87,0.0001
1398,0.3132842183113098,0.4443388283252716,1.0,0.87,0.0001
1399,0.3132849633693695,0.44438835978507996,1.0,0.87,0.0001
1400,0.3132816255092621,0.4444066882133484,1.0,0.87,0.0001
1401,0.3132825493812561,0.4444306194782257,1.0,0.87,0.0001
1402,0.31328827142715454,0.444518506526947,1.0,0.87,0.0001
1403,0.31328076124191284,0.4446064829826355,1.0,0.87,0.0001
1404,0.3132893443107605,0.4448581635951996,1.0,0.87,0.0001
1405,0.31328412890434265,0.4450162649154663,1.0,0.87,0.0001
1406,0.3132878243923187,0.44522425532341003,1.0,0.86,0.0001
1407,0.3132816255092621,0.4454386234283447,1.0,0.86,0.0001
1408,0.31328311562538147,0.44585227966308594,1.0,0.86,0.0001
1409,0.31328654289245605,0.4462202191352844,1.0,0.86,0.0001
1410,0.3132830560207367,0.44645291566848755,1.0,0.86,0.0001
1411,0.3132886588573456,0.4466927647590637,1.0,0.86,0.0001
1412,0.3132821023464203,0.44680750370025635,1.0,0.86,0.0001
1413,0.31328368186950684,0.4468545615673065,1.0,0.86,0.0001
1414,0.31328848004341125,0.4463067352771759,1.0,0.86,0.0001
1415,0.3132880926132202,0.44577187299728394,1.0,0.86,0.0001
1416,0.31328481435775757,0.44534170627593994,1.0,0.86,0.0001
1417,0.31328633427619934,0.4450536370277405,1.0,0.86,0.0001
1418,0.3132863938808441,0.44484943151474,1.0,0.87,0.0001
1419,0.31328558921813965,0.44480350613594055,1.0,0.87,0.0001
1420,0.31328141689300537,0.444909930229187,1.0,0.87,0.0001
1421,0.31328484416007996,0.4452359080314636,1.0,0.86,0.0001
1422,0.3132815957069397,0.4455757439136505,1.0,0.86,0.0001
1423,0.31328579783439636,0.4458986222743988,1.0,0.86,0.0001
1424,0.3132823407649994,0.44629746675491333,1.0,0.86,0.0001
1425,0.31328722834587097,0.4465199410915375,1.0,0.86,0.0001
1426,0.31328368186950684,0.4467962682247162,1.0,0.86,0.0001
1427,0.3132857382297516,0.44691985845565796,1.0,0.86,0.0001
1428,0.3132818639278412,0.4470016062259674,1.0,0.86,0.0001
1429,0.31328436732292175,0.44709378480911255,1.0,0.86,0.0001
1430,0.3132829964160919,0.44716811180114746,1.0,0.86,0.0001
1431,0.3132822513580322,0.447231262922287,1.0,0.86,0.0001
1432,0.3132890462875366,0.44733715057373047,1.0,0.86,0.0001
1433,0.31328320503234863,0.4472469091415405,1.0,0.86,0.0001
1434,0.31328505277633667,0.4469658136367798,1.0,0.86,0.0001
1435,0.3132830560207367,0.4467144012451172,1.0,0.86,0.0001
1436,0.31328144669532776,0.4465762972831726,1.0,0.86,0.0001
1437,0.3132835328578949,0.4464717507362366,1.0,0.86,0.0001
1438,0.3132820427417755,0.4463993012905121,1.0,0.86,0.0001
1439,0.31328168511390686,0.4462466835975647,1.0,0.86,0.0001
1440,0.3132852613925934,0.4460044503211975,1.0,0.86,0.0001
1441,0.31328263878822327,0.4458317160606384,1.0,0.86,0.0001
1442,0.3132840394973755,0.4457513689994812,1.0,0.86,0.0001
1443,0.3132816255092621,0.445576548576355,1.0,0.86,0.0001
1444,0.31328409910202026,0.44540464878082275,1.0,0.86,0.0001
1445,0.31328439712524414,0.445255845785141,1.0,0.86,0.0001
1446,0.3132864832878113,0.44527068734169006,1.0,0.86,0.0001
1447,0.3132830560207367,0.44536498188972473,1.0,0.86,0.0001
1448,0.31328484416007996,0.44542860984802246,1.0,0.86,0.0001
1449,0.3132855296134949,0.44560524821281433,1.0,0.86,0.0001
1450,0.3132813572883606,0.4458407461643219,1.0,0.86,0.0001
1451,0.31328779458999634,0.4463326632976532,1.0,0.86,0.0001
1452,0.3132844567298889,0.44661450386047363,1.0,0.86,0.0001
1453,0.31328389048576355,0.4467582702636719,1.0,0.86,0.0001
1454,0.31328192353248596,0.4468357563018799,1.0,0.86,0.0001
1455,0.3132818937301636,0.4468395709991455,1.0,0.86,0.0001
1456,0.31328558921813965,0.44677501916885376,1.0,0.86,0.0001
1457,0.31327980756759644,0.4466504752635956,1.0,0.86,0.0001
1458,0.3132859766483307,0.44647860527038574,1.0,0.86,0.0001
1459,0.3132855296134949,0.4464336633682251,1.0,0.86,0.0001
1460,0.31328484416007996,0.4462938606739044,1.0,0.86,0.0001
1461,0.3132837414741516,0.4462720453739166,1.0,0.86,0.0001
1462,0.3132808804512024,0.4461101293563843,1.0,0.86,0.0001
1463,0.3132894039154053,0.4457162618637085,1.0,0.86,0.0001
1464,0.31328314542770386,0.44550374150276184,1.0,0.86,0.0001
1465,0.3132898211479187,0.44542092084884644,1.0,0.86,0.0001
1466,0.3132823705673218,0.4453701674938202,1.0,0.87,0.0001
1467,0.3132818937301636,0.44544222950935364,1.0,0.87,0.0001
1468,0.31328192353248596,0.44561412930488586,1.0,0.86,0.0001
1469,0.31328773498535156,0.44601699709892273,1.0,0.86,0.0001
1470,0.31328585743904114,0.4463784098625183,1.0,0.86,0.0001
1471,0.3132825195789337,0.44674575328826904,1.0,0.86,0.0001
1472,0.3132885694503784,0.4470347464084625,1.0,0.86,0.0001
1473,0.3132861256599426,0.44740304350852966,1.0,0.86,0.0001
1474,0.31330642104148865,0.447645902633667,1.0,0.86,0.0001
1475,0.31328341364860535,0.44778457283973694,1.0,0.86,0.0001
1476,0.31328052282333374,0.44787612557411194,1.0,0.86,0.0001
1477,0.31333693861961365,0.44765570759773254,1.0,0.86,0.0001
1478,0.3132826089859009,0.4473975896835327,1.0,0.86,0.0001
1479,0.31328389048576355,0.4472063481807709,1.0,0.86,0.0001
1480,0.31328728795051575,0.44691506028175354,1.0,0.86,0.0001
1481,0.31328344345092773,0.4467521607875824,1.0,0.86,0.0001
1482,0.3132860064506531,0.4465698003768921,1.0,0.86,0.0001
1483,0.31328603625297546,0.44639167189598083,1.0,0.86,0.0001
1484,0.3132869005203247,0.44631457328796387,1.0,0.86,0.0001
1485,0.3132820725440979,0.44620054960250854,1.0,0.86,0.0001
1486,0.3133041262626648,0.4473173916339874,1.0,0.86,0.0001
1487,0.3132869005203247,0.4480404555797577,1.0,0.86,0.0001
1488,0.31328311562538147,0.4488936960697174,1.0,0.86,0.0001
1489,0.3132827877998352,0.4495813846588135,1.0,0.86,0.0001
1490,0.31328701972961426,0.4498492181301117,1.0,0.86,0.0001
1491,0.3132854700088501,0.44985854625701904,1.0,0.86,0.0001
1492,0.3132922649383545,0.44989314675331116,1.0,0.86,0.0001
1493,0.3132854104042053,0.4497954845428467,1.0,0.86,0.0001
1494,0.3132912218570709,0.44914281368255615,1.0,0.86,0.0001
1495,0.3132828176021576,0.44872158765792847,1.0,0.86,0.0001
1496,0.313283234834671,0.4481348395347595,1.0,0.86,0.0001
1497,0.3132837414741516,0.4476543366909027,1.0,0.86,0.0001
1498,0.3132821321487427,0.4471190571784973,1.0,0.86,0.0001
1499,0.31328532099723816,0.44665631651878357,1.0,0.86,0.0001
1500,0.31328365206718445,0.4463065266609192,1.0,0.86,0.0001
1501,0.3132818341255188,0.44591087102890015,1.0,0.87,0.0001
1502,0.31328797340393066,0.4456443786621094,1.0,0.87,0.0001
1503,0.3132827877998352,0.4454631805419922,1.0,0.87,0.0001
1504,0.3132863938808441,0.4454112648963928,1.0,0.87,0.0001
1505,0.31328141689300537,0.445317804813385,1.0,0.87,0.0001
1506,0.31328284740448,0.44532886147499084,1.0,0.87,0.0001
1507,0.3132861852645874,0.44532695412635803,1.0,0.87,0.0001
1508,0.3132847547531128,0.44544047117233276,1.0,0.87,0.0001
1509,0.31328192353248596,0.44559046626091003,1.0,0.87,0.0001
1510,0.3132842183113098,0.4457915127277374,1.0,0.87,0.0001
1511,0.31328094005584717,0.44594845175743103,1.0,0.86,0.0001
1512,0.3132803440093994,0.4461840093135834,1.0,0.86,0.0001
1513,0.3132834732532501,0.4462718665599823,1.0,0.86,0.0001
1514,0.3132825493812561,0.4463386833667755,1.0,0.86,0.0001
1515,0.3132830262184143,0.446152001619339,1.0,0.86,0.0001
1516,0.3132973909378052,0.4443248510360718,1.0,0.87,0.0001
1517,0.31329023838043213,0.44344237446784973,1.0,0.87,0.0001
1518,0.31328415870666504,0.44301483035087585,1.0,0.87,0.0001
1519,0.3132832944393158,0.44295260310173035,1.0,0.87,0.0001
1520,0.3132873773574829,0.44314736127853394,1.0,0.87,0.0001
1521,0.31328269839286804,0.4434688985347748,1.0,0.87,0.0001
1522,0.31328436732292175,0.44400298595428467,1.0,0.87,0.0001
1523,0.3132840394973755,0.4445553719997406,1.0,0.87,0.0001
1524,0.31328830122947693,0.44549262523651123,1.0,0.86,0.0001
1525,0.31328341364860535,0.44655242562294006,1.0,0.86,0.0001
1526,0.31328192353248596,0.4474726915359497,1.0,0.86,0.0001
1527,0.3132835924625397,0.4483200013637543,1.0,0.86,0.0001
1528,0.313288152217865,0.4489476680755615,1.0,0.86,0.0001
1529,0.3132844865322113,0.44939136505126953,1.0,0.86,0.0001
1530,0.3132825195789337,0.44974377751350403,1.0,0.86,0.0001
1531,0.3132826089859009,0.4498249292373657,1.0,0.86,0.0001
1532,0.3132839500904083,0.4497823417186737,1.0,0.86,0.0001
1533,0.3132827877998352,0.4494980275630951,1.0,0.86,0.0001
1534,0.31328868865966797,0.44878089427948,1.0,0.86,0.0001
1535,0.31328344345092773,0.4482446014881134,1.0,0.86,0.0001
1536,0.3132835626602173,0.4477140009403229,1.0,0.86,0.0001
1537,0.31328409910202026,0.44725728034973145,1.0,0.86,0.0001
1538,0.3132809102535248,0.44680631160736084,1.0,0.86,0.0001
1539,0.31328293681144714,0.44623851776123047,1.0,0.86,0.0001
1540,0.31328287720680237,0.44567176699638367,1.0,0.87,0.0001
1541,0.313284307718277,0.44547343254089355,1.0,0.87,0.0001
1542,0.31328022480010986,0.4453464448451996,1.0,0.87,0.0001
1543,0.3132829964160919,0.44531968235969543,1.0,0.87,0.0001
1544,0.31328704953193665,0.44534385204315186,1.0,0.87,0.0001
1545,0.3132825493812561,0.4453708529472351,1.0,0.87,0.0001
1546,0.3132847547531128,0.44569844007492065,1.0,0.87,0.0001
1547,0.3132818937301636,0.4461328387260437,1.0,0.86,0.0001
1548,0.3132835924625397,0.4465363621711731,1.0,0.86,0.0001
1549,0.31328052282333374,0.4468454420566559,1.0,0.86,0.0001
1550,0.3132832944393158,0.4470304250717163,1.0,0.86,0.0001
1551,0.31328272819519043,0.44703808426856995,1.0,0.86,0.0001
1552,0.3132883906364441,0.44737139344215393,1.0,0.86,0.0001
1553,0.3132847845554352,0.44763338565826416,1.0,0.86,0.0001
1554,0.3132845163345337,0.4476192593574524,1.0,0.86,0.0001
1555,0.31328049302101135,0.44750145077705383,1.0,0.86,0.0001
1556,0.31328460574150085,0.4474929869174957,1.0,0.86,0.0001
1557,0.31328272819519043,0.4472583830356598,1.0,0.86,0.0001
1558,0.3132835626602173,0.44685912132263184,1.0,0.86,0.0001
1559,0.31328368186950684,0.44659683108329773,1.0,0.86,0.0001
1560,0.31328123807907104,0.4463532567024231,1.0,0.86,0.0001
1561,0.3132818341255188,0.44613590836524963,1.0,0.86,0.0001
1562,0.31328505277633667,0.4456759989261627,1.0,0.87,0.0001
1563,0.31328335404396057,0.4452674090862274,1.0,0.87,0.0001
1564,0.3132864236831665,0.44479236006736755,1.0,0.87,0.0001
1565,0.3132856786251068,0.4445194900035858,1.0,0.87,0.0001
1566,0.313279926776886,0.44429299235343933,1.0,0.87,0.0001
1567,0.3132801353931427,0.4441102147102356,1.0,0.87,0.0001
1568,0.313282310962677,0.4440756142139435,1.0,0.87,0.0001
1569,0.31329676508903503,0.4443757236003876,1.0,0.87,0.0001
1570,0.31328484416007996,0.4448601007461548,1.0,0.87,0.0001
1571,0.3132879137992859,0.44543564319610596,1.0,0.87,0.0001
1572,0.3132811188697815,0.44597092270851135,1.0,0.86,0.0001
1573,0.31328460574150085,0.4462937116622925,1.0,0.86,0.0001
1574,0.3132816553115845,0.44652432203292847,1.0,0.86,0.0001
1575,0.31328392028808594,0.4466814696788788,1.0,0.86,0.0001
1576,0.3132830560207367,0.44677841663360596,1.0,0.86,0.0001
1577,0.31328266859054565,0.4468686282634735,1.0,0.86,0.0001
1578,0.31328290700912476,0.44677773118019104,1.0,0.86,0.0001
1579,0.31328076124191284,0.4466216564178467,1.0,0.86,0.0001
1580,0.31328344345092773,0.44660332798957825,1.0,0.86,0.0001
1581,0.3132852613925934,0.4467093348503113,1.0,0.86,0.0001
1582,0.313289076089859,0.44656291604042053,1.0,0.86,0.0001
1583,0.3132835924625397,0.44658362865448,1.0,0.86,0.0001
1584,0.31328117847442627,0.4466082453727722,1.0,0.86,0.0001
1585,0.31328320503234863,0.44673746824264526,1.0,0.86,0.0001
1586,0.3132849335670471,0.446938157081604,1.0,0.86,0.0001
1587,0.31328070163726807,0.4470638632774353,1.0,0.86,0.0001
1588,0.3132818937301636,0.44714316725730896,1.0,0.86,0.0001
1589,0.3132829964160919,0.4473074674606323,1.0,0.86,0.0001
1590,0.31328314542770386,0.44701752066612244,1.0,0.86,0.0001
1591,0.31328099966049194,0.44678938388824463,1.0,0.86,0.0001
1592,0.31328022480010986,0.4466693103313446,1.0,0.86,0.0001
1593,0.3132866621017456,0.44668281078338623,1.0,0.86,0.0001
1594,0.3132884204387665,0.44670531153678894,1.0,0.86,0.0001
1595,0.31328511238098145,0.4467603266239166,1.0,0.86,0.0001
1596,0.3132895827293396,0.44676899909973145,1.0,0.86,0.0001
1597,0.31328335404396057,0.4464188516139984,1.0,0.86,0.0001
1598,0.3132862448692322,0.446251779794693,1.0,0.86,0.0001
1599,0.3132835030555725,0.4462718069553375,1.0,0.86,0.0001
1600,0.3132805824279785,0.4461774528026581,1.0,0.86,0.0001
1601,0.3132879436016083,0.44604864716529846,1.0,0.86,0.0001
1602,0.3132830560207367,0.446076363325119,1.0,0.86,0.0001
1603,0.31328147649765015,0.44606345891952515,1.0,0.86,0.0001
1604,0.313281774520874,0.44604095816612244,1.0,0.86,0.0001
1605,0.31328582763671875,0.44592079520225525,1.0,0.86,0.0001
1606,0.3132800757884979,0.4458048343658447,1.0,0.86,0.0001
1607,0.3132820129394531,0.44572725892066956,1.0,0.86,0.0001
1608,0.3132820129394531,0.4456927478313446,1.0,0.86,0.0001
1609,0.3132835626602173,0.4457884728908539,1.0,0.86,0.0001
1610,0.313286691904068,0.4459482431411743,1.0,0.86,0.0001
1611,0.31328389048576355,0.44618865847587585,1.0,0.86,0.0001
1612,0.31328001618385315,0.4462834894657135,1.0,0.86,0.0001
1613,0.3132808804512024,0.44632941484451294,1.0,0.86,0.0001
1614,0.31327974796295166,0.4462983310222626,1.0,0.86,0.0001
1615,0.3132838010787964,0.4462297856807709,1.0,0.86,0.0001
1616,0.31328094005584717,0.44633948802948,1.0,0.86,0.0001
1617,0.3132847845554352,0.4465457797050476,1.0,0.86,0.0001
1618,0.3132794499397278,0.4467209279537201,1.0,0.86,0.0001
1619,0.31327927112579346,0.44687336683273315,1.0,0.86,0.0001
1620,0.31328797340393066,0.4466925859451294,1.0,0.86,0.0001
1621,0.3132804334163666,0.44642356038093567,1.0,0.86,0.0001
1622,0.3132823407649994,0.4461103081703186,1.0,0.86,0.0001
1623,0.3132849335670471,0.44593560695648193,1.0,0.86,0.0001
1624,0.31328341364860535,0.4460448920726776,1.0,0.86,0.0001
1625,0.3132821321487427,0.44625142216682434,1.0,0.86,0.0001
1626,0.31328219175338745,0.4464883506298065,1.0,0.86,0.0001
1627,0.31328320503234863,0.44673043489456177,1.0,0.86,0.0001
1628,0.3132795989513397,0.44688406586647034,1.0,0.86,0.0001
1629,0.31328532099723816,0.44724780321121216,1.0,0.86,0.0001
1630,0.3132828176021576,0.4475552439689636,1.0,0.86,0.0001
1631,0.31328368186950684,0.44788792729377747,1.0,0.86,0.0001
1632,0.31327927112579346,0.4480697512626648,1.0,0.86,0.0001
1633,0.31328141689300537,0.4480559229850769,1.0,0.86,0.0001
1634,0.31328272819519043,0.4480039179325104,1.0,0.86,0.0001
1635,0.31328144669532776,0.4479435384273529,1.0,0.86,0.0001
1636,0.3132796585559845,0.44774067401885986,1.0,0.86,0.0001
1637,0.31328284740448,0.447579950094223,1.0,0.86,0.0001
1638,0.3132818937301636,0.4473583996295929,1.0,0.86,0.0001
1639,0.3132821023464203,0.44709110260009766,1.0,0.86,0.0001
1640,0.3132799565792084,0.44688862562179565,1.0,0.86,0.0001
1641,0.3132805824279785,0.44682514667510986,1.0,0.86,0.0001
1642,0.31328460574150085,0.44680798053741455,1.0,0.86,0.0001
1643,0.31328198313713074,0.4467307925224304,1.0,0.86,0.0001
1644,0.3132791221141815,0.44666075706481934,1.0,0.86,0.0001
1645,0.3132815361022949,0.44665074348449707,1.0,0.86,0.0001
1646,0.31328150629997253,0.4465409219264984,1.0,0.86,0.0001
1647,0.3132834732532501,0.44646140933036804,1.0,0.86,0.0001
1648,0.31328096985816956,0.44640132784843445,1.0,0.86,0.0001
1649,0.3132804334163666,0.4464554190635681,1.0,0.86,0.0001
1650,0.3132847547531128,0.446491003036499,1.0,0.86,0.0001
1651,0.3132840394973755,0.4466762840747833,1.0,0.86,0.0001
1652,0.3132871687412262,0.4468632638454437,1.0,0.86,0.0001
1653,0.313284695148468,0.4469139873981476,1.0,0.86,0.0001
1654,0.3132812976837158,0.4470215141773224,1.0,0.86,0.0001
1655,0.3132827877998352,0.4471915364265442,1.0,0.86,0.0001
1656,0.31328126788139343,0.4472149610519409,1.0,0.86,0.0001
1657,0.31328368186950684,0.447335809469223,1.0,0.86,0.0001
1658,0.3132821321487427,0.4472138285636902,1.0,0.86,0.0001
1659,0.3132800757884979,0.4471256732940674,1.0,0.86,0.0001
1660,0.3132825195789337,0.4468637704849243,1.0,0.86,0.0001
1661,0.3132808208465576,0.44661131501197815,1.0,0.86,0.0001
1662,0.3132801949977875,0.4462747871875763,1.0,0.86,0.0001
1663,0.3132809102535248,0.4458952248096466,1.0,0.86,0.0001
1664,0.31328222155570984,0.44554972648620605,1.0,0.86,0.0001
1665,0.31328094005584717,0.44537147879600525,1.0,0.86,0.0001
1666,0.31328967213630676,0.4455380141735077,1.0,0.86,0.0001
1667,0.3132808804512024,0.44567957520484924,1.0,0.86,0.0001
1668,0.31328505277633667,0.44612017273902893,1.0,0.86,0.0001
1669,0.3132862150669098,0.4472256898880005,1.0,0.86,0.0001
1670,0.31327974796295166,0.4481930136680603,1.0,0.86,0.0001
1671,0.3132798671722412,0.448857843875885,1.0,0.86,0.0001
1672,0.31328314542770386,0.4491325318813324,1.0,0.86,0.0001
1673,0.3132822513580322,0.44922763109207153,1.0,0.86,0.0001
1674,0.3132840394973755,0.44915714859962463,1.0,0.86,0.0001
1675,0.3132809102535248,0.44911420345306396,1.0,0.86,0.0001
1676,0.31328171491622925,0.44886890053749084,1.0,0.86,0.0001
1677,0.3132854700088501,0.44861525297164917,1.0,0.86,0.0001
1678,0.3132833242416382,0.4479955732822418,1.0,0.86,0.0001
1679,0.3132818341255188,0.4473874270915985,1.0,0.86,0.0001
1680,0.3132813572883606,0.4466922879219055,1.0,0.86,0.0001
1681,0.3132812976837158,0.44608575105667114,1.0,0.86,0.0001
1682,0.31328073143959045,0.44554972648620605,1.0,0.86,0.0001
1683,0.3132808804512024,0.4451311528682709,1.0,0.87,0.0001
1684,0.31328144669532776,0.44485121965408325,1.0,0.87,0.0001
1685,0.3132822513580322,0.4447394907474518,1.0,0.87,0.0001
1686,0.31328094005584717,0.4448018968105316,1.0,0.87,0.0001
1687,0.31328490376472473,0.44513195753097534,1.0,0.87,0.0001
1688,0.3132835030555725,0.44524428248405457,1.0,0.87,0.0001
1689,0.31328216195106506,0.44541794061660767,1.0,0.87,0.0001
1690,0.31328824162483215,0.445199191570282,1.0,0.87,0.0001
1691,0.31328240036964417,0.4450848400592804,1.0,0.87,0.0001
1692,0.313284307718277,0.44510868191719055,1.0,0.87,0.0001
1693,0.3132791221141815,0.4451952874660492,1.0,0.87,0.0001
1694,0.31328150629997253,0.44540080428123474,1.0,0.87,0.0001
1695,0.3132830560207367,0.4457252025604248,1.0,0.87,0.0001
1696,0.3132840096950531,0.4459351599216461,1.0,0.87,0.0001
1697,0.3132841885089874,0.44612884521484375,1.0,0.87,0.0001
1698,0.31328266859054565,0.4462657570838928,1.0,0.87,0.0001
1699,0.31328141689300537,0.44639065861701965,1.0,0.86,0.0001
1700,0.3132842183113098,0.4462825655937195,1.0,0.87,0.0001
1701,0.3132823705673218,0.4462822675704956,1.0,0.86,0.0001
1702,0.31328245997428894,0.4461989104747772,1.0,0.87,0.0001
1703,0.3132828176021576,0.44621336460113525,1.0,0.87,0.0001
1704,0.3132781684398651,0.4463122487068176,1.0,0.86,0.0001
1705,0.3132805824279785,0.4463416337966919,1.0,0.86,0.0001
1706,0.3132844865322113,0.4464910924434662,1.0,0.86,0.0001
1707,0.31328389048576355,0.44674408435821533,1.0,0.86,0.0001
1708,0.3132784962654114,0.4468758702278137,1.0,0.86,0.0001
1709,0.3132829964160919,0.44699302315711975,1.0,0.86,0.0001
1710,0.31328022480010986,0.4470841586589813,1.0,0.86,0.0001
1711,0.3132820427417755,0.4472358822822571,1.0,0.86,0.0001
1712,0.3132805824279785,0.4473004937171936,1.0,0.86,0.0001
1713,0.31328511238098145,0.4472186267375946,1.0,0.86,0.0001
1714,0.313283234834671,0.44730618596076965,1.0,0.86,0.0001
1715,0.31327858567237854,0.447233647108078,1.0,0.86,0.0001
1716,0.31328004598617554,0.4470398426055908,1.0,0.86,0.0001
1717,0.3132801055908203,0.4469231367111206,1.0,0.86,0.0001
1718,0.31328436732292175,0.4468710720539093,1.0,0.86,0.0001
1719,0.31328263878822327,0.44694235920906067,1.0,0.86,0.0001
1720,0.31328120827674866,0.4469892978668213,1.0,0.86,0.0001
1721,0.31328123807907104,0.446926087141037,1.0,0.86,0.0001
1722,0.3132809102535248,0.4469146430492401,1.0,0.86,0.0001
1723,0.3132810890674591,0.44700145721435547,1.0,0.86,0.0001
1724,0.3132847547531128,0.447152704000473,1.0,0.86,0.0001
1725,0.31328245997428894,0.4471460282802582,1.0,0.86,0.0001
1726,0.3132806718349457,0.44711777567863464,1.0,0.86,0.0001
1727,0.3132835328578949,0.44704869389533997,1.0,0.86,0.0001
1728,0.3132818639278412,0.44694095849990845,1.0,0.86,0.0001
1729,0.3132815957069397,0.44682013988494873,1.0,0.86,0.0001
1730,0.3132795989513397,0.4466244876384735,1.0,0.86,0.0001
1731,0.3132825791835785,0.4465101957321167,1.0,0.86,0.0001
1732,0.31328263878822327,0.4464834928512573,1.0,0.86,0.0001
1733,0.31328245997428894,0.4464692175388336,1.0,0.86,0.0001
1734,0.31328147649765015,0.4464341104030609,1.0,0.86,0.0001
1735,0.313291996717453,0.4460951089859009,1.0,0.86,0.0001
1736,0.31328079104423523,0.44573304057121277,1.0,0.87,0.0001
1737,0.3132841885089874,0.44579610228538513,1.0,0.87,0.0001
1738,0.31328222155570984,0.44589245319366455,1.0,0.86,0.0001
1739,0.3132818341255188,0.4461096525192261,1.0,0.86,0.0001
1740,0.31328120827674866,0.44630053639411926,1.0,0.86,0.0001
1741,0.3132810890674591,0.4464517831802368,1.0,0.86,0.0001
1742,0.31328052282333374,0.44661250710487366,1.0,0.86,0.0001
1743,0.3132801949977875,0.44671371579170227,1.0,0.86,0.0001
1744,0.3132839500904083,0.4467102885246277,1.0,0.86,0.0001
1745,0.3132786750793457,0.44677048921585083,1.0,0.86,0.0001
1746,0.3132810890674591,0.4468028247356415,1.0,0.86,0.0001
1747,0.3132806718349457,0.446843683719635,1.0,0.86,0.0001
1748,0.313281774520874,0.44659966230392456,1.0,0.86,0.0001
1749,0.3132822513580322,0.44644400477409363,1.0,0.86,0.0001
1750,0.3132811486721039,0.4463062286376953,1.0,0.86,0.0001
1751,0.3132818341255188,0.4461749196052551,1.0,0.86,0.0001
1752,0.31328070163726807,0.4461841881275177,1.0,0.86,0.0001
1753,0.3132881820201874,0.44706863164901733,1.0,0.86,0.0001
1754,0.3132818937301636,0.4477713704109192,1.0,0.86,0.0001
1755,0.31328362226486206,0.44818317890167236,1.0,0.86,0.0001
1756,0.3132796287536621,0.4485160708427429,1.0,0.86,0.0001
1757,0.31328055262565613,0.4485560357570648,1.0,0.86,0.0001
1758,0.31328049302101135,0.4485204219818115,1.0,0.86,0.0001
1759,0.3132796585559845,0.44839543104171753,1.0,0.86,0.0001
1760,0.3132825195789337,0.44786322116851807,1.0,0.86,0.0001
1761,0.3132808804512024,0.4472010135650635,1.0,0.86,0.0001
1762,0.31328487396240234,0.4463781416416168,1.0,0.86,0.0001
1763,0.31328314542770386,0.4458167254924774,1.0,0.86,0.0001
1764,0.31328290700912476,0.4452579915523529,1.0,0.87,0.0001
1765,0.31327804923057556,0.44477036595344543,1.0,0.87,0.0001
1766,0.31328055262565613,0.4445314407348633,1.0,0.87,0.0001
1767,0.31328022480010986,0.44449466466903687,1.0,0.87,0.0001
1768,0.31328150629997253,0.4447566866874695,1.0,0.87,0.0001
1769,0.3132791817188263,0.4449740946292877,1.0,0.87,0.0001
1770,0.31327906250953674,0.445226788520813,1.0,0.87,0.0001
1771,0.3132837116718292,0.4455479085445404,1.0,0.86,0.0001
1772,0.31328269839286804,0.4459037780761719,1.0,0.86,0.0001
1773,0.31328117847442627,0.44615381956100464,1.0,0.86,0.0001
1774,0.3132830262184143,0.44636231660842896,1.0,0.86,0.0001
1775,0.3132816255092621,0.44657161831855774,1.0,0.86,0.0001
1776,0.31328532099723816,0.4466577172279358,1.0,0.86,0.0001
1777,0.3132808804512024,0.4465687572956085,1.0,0.86,0.0001
1778,0.31328272819519043,0.44666802883148193,1.0,0.86,0.0001
1779,0.31328001618385315,0.4466994106769562,1.0,0.86,0.0001
1780,0.3132782578468323,0.44678398966789246,1.0,0.86,0.0001
1781,0.3132772147655487,0.4469069540500641,1.0,0.86,0.0001
1782,0.3132797181606293,0.4469762444496155,1.0,0.86,0.0001
1783,0.31328117847442627,0.44686535000801086,1.0,0.86,0.0001
1784,0.31328457593917847,0.446898877620697,1.0,0.86,0.0001
1785,0.31327733397483826,0.44685909152030945,1.0,0.86,0.0001
