,train loss,val loss,train acc,val acc,lr
0,0.6950116753578186,0.6846687197685242,0.4,0.64,0.001
1,0.6818381547927856,0.6716299653053284,0.69,0.64,0.001
2,0.6641191840171814,0.6512693762779236,0.69,0.64,0.001
3,0.6358510851860046,0.6314716339111328,0.69,0.64,0.001
4,0.6031372547149658,0.637169599533081,0.69,0.65,0.001
5,0.5984388589859009,0.6302751898765564,0.69,0.65,0.001
6,0.5905292630195618,0.6012758016586304,0.69,0.67,0.001
7,0.5575569272041321,0.6251650452613831,0.73,0.69,0.001
8,0.597908616065979,0.5917168259620667,0.71,0.72,0.001
9,0.5485740303993225,0.5846227407455444,0.79,0.72,0.001
10,0.5371477007865906,0.5822838544845581,0.78,0.73,0.001
11,0.5422450304031372,0.5745345950126648,0.74,0.73,0.001
12,0.5355508923530579,0.5685580968856812,0.78,0.74,0.001
13,0.5218341946601868,0.5778954029083252,0.77,0.74,0.001
14,0.529181957244873,0.5595543384552002,0.82,0.74,0.001
15,0.5059835910797119,0.5506032109260559,0.79,0.76,0.001
16,0.5086157321929932,0.5409489870071411,0.79,0.77,0.001
17,0.502810001373291,0.5317903757095337,0.8,0.79,0.001
18,0.49523669481277466,0.5339745879173279,0.83,0.79,0.001
19,0.5023131966590881,0.5262835025787354,0.81,0.79,0.001
20,0.4929662048816681,0.5269176363945007,0.83,0.77,0.001
21,0.4930122494697571,0.527671217918396,0.81,0.78,0.001
22,0.49257588386535645,0.5274448394775391,0.82,0.78,0.001
23,0.48375824093818665,0.5360307097434998,0.82,0.77,0.001
24,0.475987046957016,0.5449869632720947,0.85,0.77,0.001
25,0.4786706566810608,0.5421483516693115,0.83,0.77,0.001
26,0.46890830993652344,0.5392239093780518,0.85,0.77,0.001
27,0.4617447257041931,0.5409833788871765,0.87,0.78,0.001
28,0.46184009313583374,0.5461363792419434,0.88,0.76,0.001
29,0.4592444598674774,0.5502959489822388,0.88,0.76,0.001
30,0.4556283950805664,0.5519447922706604,0.88,0.72,0.001
31,0.45560917258262634,0.5511499643325806,0.87,0.72,0.001
32,0.4535102844238281,0.5476846098899841,0.86,0.74,0.001
33,0.44805824756622314,0.5413272976875305,0.87,0.77,0.001
34,0.44371411204338074,0.5374916195869446,0.88,0.77,0.001
35,0.4432171583175659,0.5342077016830444,0.87,0.79,0.001
36,0.44117796421051025,0.5314410328865051,0.89,0.78,0.001
37,0.4379558861255646,0.531124472618103,0.88,0.77,0.001
38,0.43714436888694763,0.5301553010940552,0.88,0.78,0.001
39,0.4361170530319214,0.5273211598396301,0.9,0.79,0.001
40,0.4326891005039215,0.5234376192092896,0.89,0.79,0.001
41,0.43088215589523315,0.5201275944709778,0.89,0.79,0.001
42,0.4310939311981201,0.5189393162727356,0.9,0.79,0.001
43,0.4285210371017456,0.5193747878074646,0.9,0.79,0.001
44,0.4289029836654663,0.5167379975318909,0.89,0.79,0.001
45,0.42744290828704834,0.5142072439193726,0.9,0.79,0.001
46,0.42531296610832214,0.5129878520965576,0.9,0.8,0.001
47,0.42470696568489075,0.5101518630981445,0.9,0.8,0.001
48,0.4237905740737915,0.5092940926551819,0.9,0.8,0.001
49,0.423587828874588,0.5110827088356018,0.9,0.8,0.001
50,0.42273128032684326,0.510890543460846,0.9,0.8,0.001
51,0.4219079315662384,0.5084241628646851,0.9,0.8,0.001
52,0.4211570620536804,0.5089661478996277,0.9,0.8,0.001
53,0.4201878011226654,0.5095595717430115,0.9,0.8,0.001
54,0.41997718811035156,0.5074519515037537,0.9,0.8,0.001
55,0.41976407170295715,0.5086827874183655,0.9,0.8,0.001
56,0.41910821199417114,0.5096446871757507,0.9,0.8,0.001
57,0.4185488522052765,0.5082330107688904,0.9,0.8,0.001
58,0.4179507791996002,0.5106533169746399,0.9,0.8,0.001
59,0.41728341579437256,0.5139673352241516,0.9,0.79,0.001
60,0.4170220196247101,0.5128965377807617,0.9,0.79,0.001
61,0.4167042672634125,0.5158832669258118,0.9,0.79,0.001
62,0.416250079870224,0.5167834758758545,0.9,0.79,0.001
63,0.41594985127449036,0.5140058994293213,0.9,0.79,0.001
64,0.41575852036476135,0.5168049335479736,0.9,0.79,0.001
65,0.4154377281665802,0.5139874815940857,0.9,0.8,0.001
66,0.4151541590690613,0.5146729946136475,0.9,0.8,0.001
67,0.4149491488933563,0.5156265497207642,0.9,0.79,0.001
68,0.41495171189308167,0.5133699178695679,0.9,0.8,0.001
69,0.414968878030777,0.5159309506416321,0.9,0.8,0.001
70,0.4147876501083374,0.5139984488487244,0.9,0.8,0.001
71,0.4145651161670685,0.5149927139282227,0.9,0.8,0.001
72,0.414345383644104,0.5158675909042358,0.9,0.8,0.001
73,0.41430607438087463,0.5139467120170593,0.9,0.8,0.001
74,0.41422024369239807,0.5145207047462463,0.9,0.8,0.001
75,0.4140718877315521,0.5152618885040283,0.9,0.8,0.001
76,0.41405946016311646,0.5128973126411438,0.9,0.8,0.001
77,0.41393887996673584,0.511406421661377,0.9,0.8,0.001
78,0.4138970673084259,0.5117980241775513,0.9,0.8,0.001
79,0.41382312774658203,0.5109335780143738,0.9,0.81,0.001
80,0.4137887954711914,0.5087804198265076,0.9,0.81,0.001
81,0.413733571767807,0.507610023021698,0.9,0.81,0.001
82,0.4137209951877594,0.5080090165138245,0.9,0.81,0.001
83,0.4136738181114197,0.5084941983222961,0.9,0.8,0.001
84,0.4136664867401123,0.508084774017334,0.9,0.8,0.001
85,0.4136388301849365,0.5071583986282349,0.9,0.81,0.001
86,0.4136156141757965,0.5066394209861755,0.9,0.81,0.001
87,0.4136066436767578,0.5069634318351746,0.9,0.81,0.001
88,0.41358092427253723,0.507571280002594,0.9,0.81,0.001
89,0.4135654866695404,0.5077587366104126,0.9,0.8,0.001
90,0.413555383682251,0.5073450207710266,0.9,0.81,0.001
91,0.41353580355644226,0.5067080855369568,0.9,0.81,0.001
92,0.41352471709251404,0.5064250826835632,0.9,0.81,0.001
93,0.413517028093338,0.506702184677124,0.9,0.81,0.001
94,0.4135031998157501,0.5071697235107422,0.9,0.81,0.001
95,0.4134940207004547,0.5073494911193848,0.9,0.81,0.001
96,0.41348811984062195,0.5071009397506714,0.9,0.81,0.001
97,0.41347771883010864,0.506629228591919,0.9,0.81,0.001
98,0.4134692847728729,0.5063186883926392,0.9,0.81,0.001
99,0.41346409916877747,0.5063976645469666,0.9,0.81,0.001
100,0.4134560525417328,0.5067058205604553,0.9,0.81,0.001
101,0.4134482145309448,0.5069399476051331,0.9,0.81,0.001
102,0.4134434461593628,0.5069178938865662,0.9,0.81,0.001
103,0.41343775391578674,0.5066767334938049,0.9,0.81,0.001
104,0.413431316614151,0.5063914656639099,0.9,0.81,0.001
105,0.4134267568588257,0.506264328956604,0.9,0.81,0.001
106,0.4134228825569153,0.5063462257385254,0.9,0.81,0.001
107,0.41341808438301086,0.5065404772758484,0.9,0.81,0.001
108,0.4134137034416199,0.506695032119751,0.9,0.81,0.001
109,0.4134104251861572,0.5067147016525269,0.9,0.81,0.001
110,0.4134070575237274,0.5065928101539612,0.9,0.81,0.001
111,0.41340315341949463,0.5064187049865723,0.9,0.81,0.001
112,0.413399875164032,0.5062981843948364,0.9,0.81,0.001
113,0.4133972227573395,0.5062944293022156,0.9,0.81,0.001
114,0.41339433193206787,0.5063929557800293,0.9,0.81,0.001
115,0.41339120268821716,0.506509006023407,0.9,0.81,0.001
116,0.4133884310722351,0.5065780878067017,0.9,0.81,0.001
117,0.4133862257003784,0.5065545439720154,0.9,0.81,0.001
118,0.4133837819099426,0.5064586400985718,0.9,0.81,0.001
119,0.4133811593055725,0.5063536763191223,0.9,0.81,0.001
120,0.4133789837360382,0.5062878131866455,0.9,0.81,0.001
121,0.413377046585083,0.5062964558601379,0.9,0.81,0.001
122,0.4133748710155487,0.506359338760376,0.9,0.81,0.001
123,0.4133727550506592,0.5064349174499512,0.9,0.81,0.001
124,0.41337093710899353,0.506478488445282,0.9,0.81,0.001
125,0.41336920857429504,0.5064642429351807,0.9,0.81,0.001
126,0.4133674204349518,0.5064094066619873,0.9,0.81,0.001
127,0.4133656620979309,0.5063395500183105,0.9,0.81,0.001
128,0.4133639633655548,0.5062911510467529,0.9,0.81,0.001
129,0.41336238384246826,0.5062847137451172,0.9,0.81,0.001
130,0.4133608341217041,0.5063132643699646,0.9,0.81,0.001
131,0.41335925459861755,0.5063610672950745,0.9,0.81,0.001
132,0.4133577048778534,0.5063973069190979,0.9,0.81,0.001
133,0.41335639357566833,0.5064051151275635,0.9,0.81,0.001
134,0.4133550226688385,0.5063821077346802,0.9,0.81,0.001
135,0.4133535623550415,0.5063391923904419,0.9,0.81,0.001
136,0.4133523106575012,0.5062974691390991,0.9,0.81,0.001
137,0.4133509695529938,0.5062748789787292,0.9,0.81,0.001
138,0.4133497476577759,0.5062794089317322,0.9,0.81,0.001
139,0.4133484959602356,0.506303608417511,0.9,0.81,0.001
140,0.41334736347198486,0.5063314437866211,0.9,0.81,0.001
141,0.41334620118141174,0.5063526034355164,0.9,0.81,0.001
142,0.4133450984954834,0.5063533186912537,0.9,0.81,0.001
143,0.4133439362049103,0.5063382983207703,0.9,0.81,0.001
144,0.41334283351898193,0.5063099265098572,0.9,0.81,0.001
145,0.413341760635376,0.5062850713729858,0.9,0.81,0.001
146,0.41334080696105957,0.5062699317932129,0.9,0.81,0.001
147,0.413339763879776,0.5062676668167114,0.9,0.81,0.001
148,0.4133387804031372,0.5062801837921143,0.9,0.81,0.001
149,0.4133378863334656,0.5062971711158752,0.9,0.81,0.001
150,0.4133369028568268,0.5063122510910034,0.9,0.81,0.001
151,0.4133359491825104,0.5063136219978333,0.9,0.81,0.001
152,0.4133351147174835,0.5063056349754333,0.9,0.81,0.001
153,0.4133341908454895,0.5062931180000305,0.9,0.81,0.001
154,0.41333335638046265,0.5062730312347412,0.9,0.81,0.001
155,0.4133324921131134,0.5062576532363892,0.9,0.81,0.001
156,0.4133315980434418,0.5062528252601624,0.9,0.81,0.001
157,0.41333088278770447,0.5062533020973206,0.9,0.81,0.001
158,0.4133300483226776,0.50626140832901,0.9,0.81,0.001
159,0.413329154253006,0.506269097328186,0.9,0.81,0.001
160,0.41332852840423584,0.5062760710716248,0.9,0.81,0.001
161,0.41332775354385376,0.506274402141571,0.9,0.81,0.001
162,0.4133269786834717,0.5062658190727234,0.9,0.81,0.001
163,0.413326233625412,0.506254255771637,0.9,0.81,0.001
164,0.41332554817199707,0.5062419176101685,0.9,0.81,0.001
165,0.41332486271858215,0.5062326788902283,0.9,0.81,0.001
166,0.41332411766052246,0.5062258839607239,0.9,0.81,0.001
167,0.41332343220710754,0.5062258243560791,0.9,0.81,0.001
168,0.4133227467536926,0.5062281489372253,0.9,0.81,0.001
169,0.41332218050956726,0.5062278509140015,0.9,0.81,0.001
170,0.41332149505615234,0.5062276721000671,0.9,0.81,0.001
171,0.4133208990097046,0.5062257051467896,0.9,0.81,0.001
172,0.41332027316093445,0.5062215328216553,0.9,0.81,0.001
173,0.4133196771144867,0.5062130093574524,0.9,0.81,0.001
174,0.41331905126571655,0.5062040686607361,0.9,0.81,0.001
175,0.4133184850215912,0.5061944723129272,0.9,0.81,0.001
176,0.41331782937049866,0.5061877369880676,0.9,0.81,0.001
177,0.4133172929286957,0.5061842203140259,0.9,0.81,0.001
178,0.4133167266845703,0.5061815977096558,0.9,0.81,0.001
179,0.4133162200450897,0.5061805844306946,0.9,0.81,0.001
180,0.41331568360328674,0.5061779618263245,0.9,0.81,0.001
181,0.41331517696380615,0.5061748623847961,0.9,0.81,0.001
182,0.413314551115036,0.5061687231063843,0.9,0.81,0.001
183,0.4133141040802002,0.5061644911766052,0.9,0.81,0.001
184,0.4133135676383972,0.5061566829681396,0.9,0.81,0.001
185,0.41331303119659424,0.5061478614807129,0.9,0.81,0.001
186,0.41331252455711365,0.5061413049697876,0.9,0.81,0.001
187,0.41331207752227783,0.5061371922492981,0.9,0.81,0.001
188,0.4133116602897644,0.5061325430870056,0.9,0.81,0.001
189,0.4133111536502838,0.506128191947937,0.9,0.81,0.001
190,0.413310706615448,0.5061260461807251,0.9,0.81,0.001
191,0.4133101999759674,0.5061209201812744,0.9,0.81,0.001
192,0.413309782743454,0.5061190128326416,0.9,0.81,0.001
193,0.41330936551094055,0.5061154365539551,0.9,0.81,0.001
194,0.4133089482784271,0.5061098337173462,0.9,0.81,0.001
195,0.41330841183662415,0.5061021447181702,0.9,0.81,0.001
196,0.4133080244064331,0.5060966610908508,0.9,0.81,0.001
197,0.4133076071739197,0.5060893893241882,0.9,0.81,0.001
198,0.41330718994140625,0.5060839653015137,0.9,0.81,0.001
199,0.4133068025112152,0.5060800313949585,0.9,0.81,0.001
200,0.4133063554763794,0.5060787796974182,0.9,0.81,0.001
201,0.41330593824386597,0.506074845790863,0.9,0.81,0.001
202,0.4133055508136749,0.5060716867446899,0.9,0.81,0.001
203,0.4133051931858063,0.5060696005821228,0.9,0.81,0.001
204,0.4133048355579376,0.5060656070709229,0.9,0.81,0.001
205,0.4133044481277466,0.5060598850250244,0.9,0.81,0.001
206,0.4133041501045227,0.5060548782348633,0.9,0.81,0.001
207,0.4133036732673645,0.5060485005378723,0.9,0.81,0.001
208,0.41330328583717346,0.5060449838638306,0.9,0.81,0.001
209,0.4133029580116272,0.5060403943061829,0.9,0.81,0.001
210,0.4133026599884033,0.5060346126556396,0.9,0.81,0.001
211,0.4133022725582123,0.5060323476791382,0.9,0.81,0.001
212,0.41330191493034363,0.5060315132141113,0.9,0.81,0.001
213,0.413301557302475,0.5060262680053711,0.9,0.81,0.001
214,0.4133012890815735,0.5060260891914368,0.9,0.81,0.001
215,0.4133009612560272,0.5060226321220398,0.9,0.81,0.001
216,0.41330066323280334,0.5060195922851562,0.9,0.81,0.001
217,0.41330036520957947,0.506014347076416,0.9,0.81,0.001
218,0.41329994797706604,0.506009578704834,0.9,0.81,0.001
219,0.4132997393608093,0.506006121635437,0.9,0.81,0.001
220,0.4132993817329407,0.5060003399848938,0.9,0.81,0.001
221,0.413299024105072,0.5059959888458252,0.9,0.81,0.001
222,0.4132987856864929,0.5059930086135864,0.9,0.81,0.001
223,0.41329851746559143,0.5059900283813477,0.9,0.81,0.001
224,0.41329821944236755,0.505988597869873,0.9,0.81,0.001
225,0.4132978916168213,0.5059865117073059,0.9,0.81,0.001
226,0.4132976531982422,0.505984902381897,0.9,0.81,0.001
227,0.41329726576805115,0.5059829950332642,0.9,0.81,0.001
228,0.4132970869541168,0.5059774518013,0.9,0.81,0.001
229,0.4132966995239258,0.5059744715690613,0.9,0.81,0.001
230,0.41329652070999146,0.5059690475463867,0.9,0.81,0.001
231,0.41329625248908997,0.5059646368026733,0.9,0.81,0.001
232,0.4132959842681885,0.5059612393379211,0.9,0.81,0.001
233,0.413295716047287,0.5059568285942078,0.9,0.81,0.001
234,0.4132954478263855,0.5059553384780884,0.9,0.81,0.001
235,0.4132952094078064,0.5059540867805481,0.9,0.81,0.001
236,0.4132949709892273,0.505950927734375,0.9,0.81,0.001
237,0.4132947027683258,0.5059489011764526,0.9,0.81,0.001
238,0.4132944941520691,0.5059456825256348,0.9,0.81,0.001
239,0.41329425573349,0.5059446692466736,0.9,0.81,0.001
240,0.4132939577102661,0.5059390068054199,0.9,0.81,0.001
241,0.413293719291687,0.5059353113174438,0.9,0.81,0.001
242,0.4132935404777527,0.5059319734573364,0.9,0.81,0.001
243,0.4132932424545288,0.5059283971786499,0.9,0.81,0.001
244,0.4132930636405945,0.505926251411438,0.9,0.81,0.001
245,0.413292795419693,0.5059249401092529,0.9,0.81,0.001
246,0.4132925868034363,0.5059201121330261,0.9,0.81,0.001
247,0.41329243779182434,0.5059177875518799,0.9,0.81,0.001
248,0.41329219937324524,0.5059152841567993,0.9,0.81,0.001
249,0.4132920205593109,0.5059131383895874,0.9,0.81,0.001
250,0.41329169273376465,0.5059106945991516,0.9,0.81,0.001
251,0.4132915139198303,0.5059080719947815,0.9,0.81,0.001
252,0.413291335105896,0.5059048533439636,0.9,0.81,0.001
253,0.4132911264896393,0.505903422832489,0.9,0.81,0.001
254,0.4132908582687378,0.5059003233909607,0.9,0.81,0.001
255,0.41329073905944824,0.5058973431587219,0.9,0.81,0.001
256,0.41329044103622437,0.50589519739151,0.9,0.81,0.001
257,0.4132903218269348,0.5058903694152832,0.9,0.81,0.001
258,0.4132901728153229,0.5058888792991638,0.9,0.81,0.001
259,0.41328999400138855,0.5058856010437012,0.9,0.81,0.001
260,0.41328972578048706,0.5058856010437012,0.9,0.81,0.001
261,0.41328951716423035,0.5058830976486206,0.9,0.81,0.001
262,0.4132893681526184,0.5058786869049072,0.9,0.81,0.001
263,0.4132891893386841,0.5058778524398804,0.9,0.81,0.001
264,0.413288950920105,0.5058737397193909,0.9,0.81,0.001
265,0.41328877210617065,0.5058711171150208,0.9,0.81,0.001
266,0.4132886528968811,0.5058692693710327,0.9,0.81,0.001
267,0.4132883846759796,0.5058665871620178,0.9,0.81,0.001
268,0.41328826546669006,0.5058647394180298,0.9,0.81,0.001
269,0.4132879972457886,0.5058625340461731,0.9,0.81,0.001
270,0.41328784823417664,0.505859375,0.9,0.81,0.001
271,0.4132877588272095,0.5058587789535522,0.9,0.81,0.001
272,0.41328758001327515,0.5058543086051941,0.9,0.81,0.001
273,0.4132874011993408,0.5058541893959045,0.9,0.81,0.001
274,0.41328728199005127,0.5058508515357971,0.9,0.81,0.001
275,0.41328704357147217,0.5058492422103882,0.9,0.81,0.001
276,0.41328689455986023,0.5058472752571106,0.9,0.81,0.001
277,0.4132867753505707,0.5058439373970032,0.9,0.81,0.001
278,0.41328662633895874,0.5058415532112122,0.9,0.81,0.001
279,0.4132864475250244,0.5058397650718689,0.9,0.81,0.001
280,0.41328632831573486,0.505837082862854,0.9,0.81,0.001
281,0.4132861793041229,0.5058354735374451,0.9,0.81,0.001
282,0.4132859706878662,0.5058333873748779,0.9,0.81,0.001
283,0.4132858216762543,0.5058309435844421,0.9,0.81,0.001
284,0.41328567266464233,0.5058270692825317,0.9,0.81,0.001
285,0.4132855236530304,0.5058267712593079,0.9,0.81,0.001
286,0.41328540444374084,0.5058251619338989,0.9,0.81,0.001
287,0.4132852554321289,0.5058237314224243,0.9,0.81,0.001
288,0.4132850766181946,0.5058211088180542,0.9,0.81,0.001
289,0.4132849872112274,0.5058191418647766,0.9,0.81,0.001
290,0.41328486800193787,0.5058169960975647,0.9,0.81,0.001
291,0.41328468918800354,0.5058139562606812,0.9,0.81,0.001
292,0.4132845401763916,0.5058122873306274,0.9,0.81,0.001
293,0.41328439116477966,0.505810022354126,0.9,0.81,0.001
294,0.4132843017578125,0.5058093667030334,0.9,0.81,0.001
295,0.4132841229438782,0.5058066844940186,0.9,0.81,0.001
296,0.4132840037345886,0.5058057904243469,0.9,0.81,0.001
297,0.4132838547229767,0.5058027505874634,0.9,0.81,0.001
298,0.4132837653160095,0.5058013200759888,0.9,0.81,0.001
299,0.4132836163043976,0.5057987570762634,0.9,0.81,0.001
300,0.41328349709510803,0.5057967305183411,0.9,0.81,0.001
301,0.4132833480834961,0.5057954788208008,0.9,0.81,0.001
302,0.41328322887420654,0.5057942867279053,0.9,0.81,0.001
303,0.41328316926956177,0.5057909488677979,0.9,0.81,0.001
304,0.41328293085098267,0.505791187286377,0.9,0.81,0.001
305,0.4132828414440155,0.5057881474494934,0.9,0.81,0.001
306,0.41328269243240356,0.5057858824729919,0.9,0.81,0.001
307,0.4132826328277588,0.50578373670578,0.9,0.81,0.001
308,0.41328248381614685,0.5057823657989502,0.9,0.81,0.001
309,0.4132823050022125,0.5057809352874756,0.9,0.81,0.001
310,0.41328221559524536,0.5057803392410278,0.9,0.81,0.001
311,0.4132820963859558,0.5057762265205383,0.9,0.81,0.001
312,0.41328200697898865,0.5057752132415771,0.9,0.81,0.001
313,0.41328194737434387,0.5057745575904846,0.9,0.81,0.001
314,0.4132818281650543,0.5057729482650757,0.9,0.81,0.001
315,0.4132816791534424,0.5057708621025085,0.9,0.81,0.001
316,0.41328155994415283,0.5057692527770996,0.9,0.81,0.001
317,0.41328147053718567,0.5057689547538757,0.9,0.81,0.001
318,0.41328132152557373,0.5057674646377563,0.9,0.81,0.0007937005259840996
319,0.41328126192092896,0.5057657361030579,0.9,0.81,0.0007937005259840996
320,0.4132811725139618,0.505764901638031,0.9,0.81,0.0007937005259840996
321,0.41328102350234985,0.5057645440101624,0.9,0.81,0.0007937005259840996
322,0.41328099370002747,0.5057625770568848,0.9,0.81,0.0007937005259840996
323,0.4132808744907379,0.505760669708252,0.9,0.81,0.0007937005259840996
324,0.4132808744907379,0.5057598948478699,0.9,0.81,0.0007937005259840996
325,0.41328075528144836,0.5057576894760132,0.9,0.81,0.0007937005259840996
326,0.4132806360721588,0.5057581663131714,0.9,0.81,0.0007937005259840996
327,0.41328057646751404,0.5057551860809326,0.9,0.81,0.0007937005259840996
328,0.4132804870605469,0.5057528018951416,0.9,0.81,0.0007937005259840996
329,0.4132803976535797,0.5057531595230103,0.9,0.81,0.0007937005259840996
330,0.41328030824661255,0.5057519674301147,0.9,0.81,0.0007937005259840996
331,0.413280189037323,0.5057500600814819,0.9,0.81,0.0007937005259840996
332,0.4132801294326782,0.505750298500061,0.9,0.81,0.0007937005259840996
333,0.41328009963035583,0.5057488083839417,0.9,0.81,0.0007937005259840996
334,0.4132799506187439,0.505748450756073,0.9,0.81,0.0007937005259840996
335,0.4132799506187439,0.5057458877563477,0.9,0.81,0.0007937005259840996
336,0.41327983140945435,0.5057446360588074,0.9,0.81,0.0007937005259840996
337,0.4132797122001648,0.5057445168495178,0.9,0.81,0.0007937005259840996
338,0.41327977180480957,0.5057438611984253,0.9,0.81,0.0007937005259840996
339,0.41327962279319763,0.5057430267333984,0.9,0.81,0.0007937005259840996
340,0.41327953338623047,0.5057413578033447,0.9,0.81,0.0007937005259840996
341,0.4132794439792633,0.5057393312454224,0.9,0.81,0.0007937005259840996
342,0.4132794439792633,0.5057380795478821,0.9,0.81,0.0007937005259840996
343,0.41327935457229614,0.5057384371757507,0.9,0.81,0.0007937005259840996
344,0.41327929496765137,0.5057362914085388,0.9,0.81,0.0007937005259840996
345,0.41327929496765137,0.5057348012924194,0.9,0.81,0.0007937005259840996
346,0.41327911615371704,0.5057326555252075,0.9,0.81,0.0007937005259840996
347,0.4132790267467499,0.5057318210601807,0.9,0.81,0.0007937005259840996
348,0.4132790267467499,0.505733072757721,0.9,0.81,0.0007937005259840996
349,0.41327887773513794,0.5057300329208374,0.9,0.81,0.0007937005259840996
350,0.41327884793281555,0.5057283043861389,0.9,0.81,0.0007937005259840996
351,0.41327881813049316,0.5057282447814941,0.9,0.81,0.0007937005259840996
352,0.4132786989212036,0.5057286620140076,0.9,0.81,0.0007937005259840996
353,0.4132786989212036,0.5057274699211121,0.9,0.81,0.0007937005259840996
354,0.4132784903049469,0.5057259202003479,0.9,0.81,0.0007937005259840996
355,0.4132784903049469,0.5057256817817688,0.9,0.81,0.0007937005259840996
356,0.4132784307003021,0.5057244300842285,0.9,0.81,0.0007937005259840996
357,0.41327834129333496,0.5057239532470703,0.9,0.81,0.0007937005259840996
358,0.4132782816886902,0.5057204961776733,0.9,0.81,0.0007937005259840996
359,0.41327816247940063,0.5057215690612793,0.9,0.81,0.0007937005259840996
360,0.413278192281723,0.5057195425033569,0.9,0.81,0.0007937005259840996
361,0.41327813267707825,0.5057175159454346,0.9,0.81,0.0007937005259840996
362,0.4132779836654663,0.5057182312011719,0.9,0.81,0.0007937005259840996
363,0.4132779836654663,0.5057170391082764,0.9,0.81,0.0007937005259840996
364,0.4132779836654663,0.5057169198989868,0.9,0.81,0.0007937005259840996
365,0.41327789425849915,0.5057154297828674,0.9,0.81,0.0007937005259840996
366,0.4132777750492096,0.5057151913642883,0.9,0.81,0.0007937005259840996
367,0.4132777154445648,0.5057145357131958,0.9,0.81,0.0007937005259840996
368,0.41327759623527527,0.5057132840156555,0.9,0.81,0.0007937005259840996
369,0.41327759623527527,0.5057116150856018,0.9,0.81,0.0007937005259840996
370,0.4132775068283081,0.5057108402252197,0.9,0.81,0.0007937005259840996
371,0.41327738761901855,0.5057073831558228,0.9,0.81,0.0007937005259840996
372,0.41327735781669617,0.5057091116905212,0.9,0.81,0.0007937005259840996
373,0.4132773280143738,0.5057082176208496,0.9,0.81,0.0007937005259840996
374,0.413277268409729,0.5057081580162048,0.9,0.81,0.0007937005259840996
375,0.4132772386074066,0.5057078003883362,0.9,0.81,0.0007937005259840996
376,0.41327720880508423,0.5057055354118347,0.9,0.81,0.0007937005259840996
377,0.4132770895957947,0.5057053565979004,0.9,0.81,0.0007937005259840996
378,0.4132770597934723,0.5057051181793213,0.9,0.81,0.0007937005259840996
379,0.4132770299911499,0.5057035088539124,0.9,0.81,0.0007937005259840996
380,0.41327691078186035,0.505702793598175,0.9,0.81,0.0007937005259840996
381,0.4132767915725708,0.5057017803192139,0.9,0.81,0.0007937005259840996
382,0.4132767915725708,0.5057008266448975,0.9,0.81,0.0007937005259840996
383,0.41327670216560364,0.5057002902030945,0.9,0.81,0.0007937005259840996
384,0.41327667236328125,0.5056986808776855,0.9,0.81,0.0007937005259840996
385,0.41327664256095886,0.5056995153427124,0.9,0.81,0.0007937005259840996
386,0.4132765531539917,0.5056991577148438,0.9,0.81,0.0007937005259840996
387,0.4132765233516693,0.5056970119476318,0.9,0.81,0.0007937005259840996
388,0.4132764935493469,0.5056965351104736,0.9,0.81,0.0007937005259840996
389,0.41327640414237976,0.5056963562965393,0.9,0.81,0.0007937005259840996
390,0.4132762849330902,0.5056948661804199,0.9,0.81,0.0007937005259840996
391,0.4132763743400574,0.5056954026222229,0.9,0.81,0.0007937005259840996
392,0.41327622532844543,0.5056936144828796,0.9,0.81,0.0007937005259840996
393,0.41327622532844543,0.5056929588317871,0.9,0.81,0.0007937005259840996
394,0.4132761061191559,0.5056926012039185,0.9,0.81,0.0007937005259840996
395,0.4132760763168335,0.5056910514831543,0.9,0.81,0.0007937005259840996
396,0.41327595710754395,0.5056906342506409,0.9,0.81,0.0007937005259840996
397,0.41327598690986633,0.5056907534599304,0.9,0.81,0.0007937005259840996
398,0.41327589750289917,0.5056895613670349,0.9,0.81,0.0007937005259840996
399,0.4132758378982544,0.5056875348091125,0.9,0.81,0.0007937005259840996
400,0.413275808095932,0.5056881308555603,0.9,0.81,0.0007937005259840996
401,0.41327574849128723,0.5056865215301514,0.9,0.81,0.0007937005259840996
402,0.41327568888664246,0.505686342716217,0.9,0.81,0.0007937005259840996
403,0.41327568888664246,0.5056860446929932,0.9,0.81,0.0007937005259840996
404,0.4132756292819977,0.5056849122047424,0.9,0.81,0.0007937005259840996
405,0.4132755398750305,0.5056840777397156,0.9,0.81,0.0007937005259840996
406,0.41327548027038574,0.5056829452514648,0.9,0.81,0.0007937005259840996
407,0.41327545046806335,0.5056843161582947,0.9,0.81,0.0007937005259840996
408,0.4132753312587738,0.5056827068328857,0.9,0.81,0.0007937005259840996
409,0.41327542066574097,0.5056819319725037,0.9,0.81,0.0007937005259840996
410,0.4132753014564514,0.5056808590888977,0.9,0.81,0.0007937005259840996
411,0.41327518224716187,0.5056807398796082,0.9,0.81,0.0007937005259840996
412,0.41327527165412903,0.5056799054145813,0.9,0.81,0.0007937005259840996
413,0.4132751226425171,0.5056798458099365,0.9,0.81,0.0007937005259840996
414,0.4132750630378723,0.5056787133216858,0.9,0.81,0.0007937005259840996
415,0.4132750630378723,0.5056785345077515,0.9,0.81,0.0007937005259840996
416,0.41327500343322754,0.5056777596473694,0.9,0.81,0.0007937005259840996
417,0.4132749140262604,0.5056778192520142,0.9,0.81,0.0007937005259840996
418,0.4132749140262604,0.5056768655776978,0.9,0.81,0.0007937005259840996
419,0.4132749140262604,0.5056745409965515,0.9,0.81,0.0006299605249474364
420,0.413274884223938,0.5056755542755127,0.9,0.81,0.0006299605249474364
421,0.41327476501464844,0.5056757926940918,0.9,0.81,0.0006299605249474364
422,0.41327476501464844,0.5056748390197754,0.9,0.81,0.0006299605249474364
423,0.4132746756076813,0.5056734681129456,0.9,0.81,0.0006299605249474364
424,0.4132746756076813,0.5056731700897217,0.9,0.81,0.0006299605249474364
425,0.4132746756076813,0.5056736469268799,0.9,0.81,0.0006299605249474364
426,0.4132746458053589,0.5056730508804321,0.9,0.81,0.0006299605249474364
427,0.41327452659606934,0.5056734681129456,0.9,0.81,0.0006299605249474364
428,0.41327449679374695,0.5056723952293396,0.9,0.81,0.0006299605249474364
429,0.41327446699142456,0.5056716799736023,0.9,0.81,0.0006299605249474364
430,0.4132744073867798,0.5056717395782471,0.9,0.81,0.0006299605249474364
431,0.4132744073867798,0.5056715607643127,0.9,0.81,0.0006299605249474364
432,0.4132743775844574,0.5056711435317993,0.9,0.81,0.0006299605249474364
433,0.413274347782135,0.5056712031364441,0.9,0.81,0.0006299605249474364
434,0.4132743179798126,0.5056699514389038,0.9,0.81,0.0006299605249474364
435,0.41327425837516785,0.5056696534156799,0.9,0.81,0.0006299605249474364
436,0.4132743179798126,0.5056684613227844,0.9,0.81,0.0006299605249474364
437,0.4132741093635559,0.5056682825088501,0.9,0.81,0.0006299605249474364
438,0.41327419877052307,0.5056679248809814,0.9,0.81,0.0006299605249474364
439,0.4132741093635559,0.5056681632995605,0.9,0.81,0.0006299605249474364
440,0.4132741093635559,0.5056681036949158,0.9,0.81,0.0006299605249474364
441,0.4132740795612335,0.5056669116020203,0.9,0.81,0.0006299605249474364
442,0.4132741093635559,0.5056664943695068,0.9,0.81,0.0006299605249474364
443,0.41327399015426636,0.505666196346283,0.9,0.81,0.0006299605249474364
444,0.41327396035194397,0.5056650042533875,0.9,0.81,0.0006299605249474364
445,0.41327399015426636,0.505665123462677,0.9,0.81,0.0006299605249474364
446,0.4132739305496216,0.5056661367416382,0.9,0.81,0.0006299605249474364
447,0.4132738411426544,0.5056648850440979,0.9,0.81,0.0006299605249474364
448,0.41327378153800964,0.5056653618812561,0.9,0.81,0.0006299605249474364
449,0.41327381134033203,0.505664050579071,0.9,0.81,0.0006299605249474364
450,0.41327381134033203,0.5056642293930054,0.9,0.81,0.0006299605249474364
451,0.41327372193336487,0.5056626796722412,0.9,0.81,0.0006299605249474364
452,0.4132736921310425,0.505662202835083,0.9,0.81,0.0006299605249474364
453,0.4132736921310425,0.5056620240211487,0.9,0.81,0.0006299605249474364
454,0.4132736921310425,0.5056619048118591,0.9,0.81,0.0006299605249474364
455,0.4132736325263977,0.505660891532898,0.9,0.81,0.0006299605249474364
456,0.4132736325263977,0.5056615471839905,0.9,0.81,0.0006299605249474364
457,0.4132736325263977,0.505659818649292,0.9,0.81,0.0006299605249474364
458,0.41327354311943054,0.5056604146957397,0.9,0.81,0.0006299605249474364
459,0.4132734537124634,0.5056611895561218,0.9,0.81,0.0006299605249474364
460,0.413273423910141,0.5056607127189636,0.9,0.81,0.0006299605249474364
461,0.413273423910141,0.5056598782539368,0.9,0.81,0.0006299605249474364
462,0.4132733643054962,0.5056594610214233,0.9,0.81,0.0006299605249474364
463,0.4132733643054962,0.5056591629981995,0.9,0.81,0.0006299605249474364
464,0.4132733643054962,0.5056591629981995,0.9,0.81,0.0006299605249474364
465,0.41327327489852905,0.5056586265563965,0.9,0.81,0.0006299605249474364
466,0.41327327489852905,0.5056577920913696,0.9,0.81,0.0006299605249474364
467,0.41327324509620667,0.5056574940681458,0.9,0.81,0.0006299605249474364
468,0.4132732152938843,0.5056579113006592,0.9,0.81,0.0006299605249474364
469,0.41327324509620667,0.5056569576263428,0.9,0.81,0.0006299605249474364
470,0.4132731556892395,0.5056576728820801,0.9,0.81,0.0006299605249474364
471,0.4132730960845947,0.5056583881378174,0.9,0.81,0.0006299605249474364
472,0.4132731258869171,0.5056584477424622,0.9,0.81,0.0006299605249474364
473,0.41327303647994995,0.5056565999984741,0.9,0.81,0.0006299605249474364
474,0.41327300667762756,0.5056552290916443,0.9,0.81,0.0006299605249474364
475,0.4132729768753052,0.5056557655334473,0.9,0.81,0.0006299605249474364
476,0.4132729470729828,0.5056555271148682,0.9,0.81,0.0006299605249474364
477,0.4132729470729828,0.5056556463241577,0.9,0.81,0.0006299605249474364
478,0.413272887468338,0.5056542158126831,0.9,0.81,0.0006299605249474364
479,0.4132729470729828,0.5056549906730652,0.9,0.81,0.0006299605249474364
480,0.41327282786369324,0.5056557655334473,0.9,0.81,0.0006299605249474364
481,0.4132728576660156,0.505655825138092,0.9,0.81,0.0006299605249474364
482,0.41327276825904846,0.5056548714637756,0.9,0.81,0.0006299605249474364
483,0.41327276825904846,0.5056538581848145,0.9,0.81,0.0006299605249474364
484,0.4132727384567261,0.505653977394104,0.9,0.81,0.0006299605249474364
485,0.4132726788520813,0.5056524872779846,0.9,0.81,0.0006299605249474364
486,0.4132727086544037,0.505652904510498,0.9,0.81,0.0006299605249474364
487,0.4132726788520813,0.5056537985801697,0.9,0.81,0.0006299605249474364
488,0.41327258944511414,0.505652666091919,0.9,0.81,0.0006299605249474364
489,0.41327258944511414,0.5056531429290771,0.9,0.81,0.0006299605249474364
490,0.41327255964279175,0.5056523680686951,0.9,0.81,0.0006299605249474364
491,0.41327255964279175,0.5056518316268921,0.9,0.81,0.0006299605249474364
492,0.4132724702358246,0.5056514143943787,0.9,0.81,0.0006299605249474364
493,0.4132724702358246,0.5056518912315369,0.9,0.81,0.0006299605249474364
494,0.4132724404335022,0.5056511163711548,0.9,0.81,0.0006299605249474364
495,0.4132724106311798,0.505652129650116,0.9,0.81,0.0006299605249474364
496,0.4132724106311798,0.505649983882904,0.9,0.81,0.0006299605249474364
497,0.41327232122421265,0.5056504607200623,0.9,0.81,0.0006299605249474364
498,0.41327232122421265,0.5056499242782593,0.9,0.81,0.0006299605249474364
499,0.41327229142189026,0.5056504607200623,0.9,0.81,0.0006299605249474364
500,0.41327229142189026,0.5056500434875488,0.9,0.81,0.0006299605249474364
501,0.41327229142189026,0.5056496858596802,0.9,0.81,0.0006299605249474364
502,0.4132721722126007,0.5056501030921936,0.9,0.81,0.0006299605249474364
503,0.41327226161956787,0.5056502223014832,0.9,0.81,0.0006299605249474364
504,0.4132722020149231,0.5056502819061279,0.9,0.81,0.0006299605249474364
505,0.41327205300331116,0.5056483149528503,0.9,0.81,0.0006299605249474364
506,0.41327208280563354,0.5056478977203369,0.9,0.81,0.0006299605249474364
507,0.41327205300331116,0.5056482553482056,0.9,0.81,0.0006299605249474364
508,0.41327205300331116,0.5056478381156921,0.9,0.81,0.0006299605249474364
509,0.41327202320098877,0.5056486129760742,0.9,0.81,0.0006299605249474364
510,0.41327202320098877,0.505648672580719,0.9,0.81,0.0006299605249474364
511,0.41327205300331116,0.5056488513946533,0.9,0.81,0.0006299605249474364
512,0.4132719039916992,0.5056478381156921,0.9,0.81,0.0006299605249474364
513,0.4132719039916992,0.505647599697113,0.9,0.81,0.0006299605249474364
514,0.4132719039916992,0.5056476593017578,0.9,0.81,0.0006299605249474364
515,0.4132719039916992,0.5056472420692444,0.9,0.81,0.0006299605249474364
516,0.41327187418937683,0.5056474208831787,0.9,0.81,0.0006299605249474364
517,0.41327181458473206,0.5056473016738892,0.9,0.81,0.0006299605249474364
518,0.41327178478240967,0.5056465864181519,0.9,0.81,0.0006299605249474364
519,0.41327181458473206,0.5056458115577698,0.9,0.81,0.0006299605249474364
520,0.4132717549800873,0.5056463479995728,0.9,0.81,0.0004999999999999997
521,0.4132716655731201,0.5056463479995728,0.9,0.81,0.0004999999999999997
522,0.4132717549800873,0.5056465864181519,0.9,0.81,0.0004999999999999997
523,0.4132716655731201,0.5056468844413757,0.9,0.81,0.0004999999999999997
524,0.4132717251777649,0.5056463479995728,0.9,0.81,0.0004999999999999997
525,0.41327160596847534,0.5056453943252563,0.9,0.81,0.0004999999999999997
526,0.41327163577079773,0.5056455135345459,0.9,0.81,0.0004999999999999997
527,0.41327154636383057,0.5056452751159668,0.9,0.81,0.0004999999999999997
528,0.41327163577079773,0.5056439638137817,0.9,0.81,0.0004999999999999997
529,0.41327154636383057,0.5056449174880981,0.9,0.81,0.0004999999999999997
530,0.4132715165615082,0.5056452751159668,0.9,0.81,0.0004999999999999997
531,0.4132715165615082,0.5056450366973877,0.9,0.81,0.0004999999999999997
532,0.4132714867591858,0.5056451559066772,0.9,0.81,0.0004999999999999997
533,0.4132714569568634,0.5056449770927429,0.9,0.81,0.0004999999999999997
534,0.4132714569568634,0.5056445598602295,0.9,0.81,0.0004999999999999997
535,0.4132714569568634,0.5056444406509399,0.9,0.81,0.0004999999999999997
536,0.41327139735221863,0.5056448578834534,0.9,0.81,0.0004999999999999997
537,0.41327139735221863,0.5056448578834534,0.9,0.81,0.0004999999999999997
538,0.41327139735221863,0.5056440234184265,0.9,0.81,0.0004999999999999997
539,0.41327130794525146,0.5056437849998474,0.9,0.81,0.0004999999999999997
540,0.41327133774757385,0.5056455135345459,0.9,0.81,0.0004999999999999997
541,0.4132712483406067,0.5056447386741638,0.9,0.81,0.0004999999999999997
542,0.41327130794525146,0.5056453943252563,0.9,0.81,0.0004999999999999997
543,0.41327133774757385,0.5056443214416504,0.9,0.81,0.0004999999999999997
544,0.41327133774757385,0.5056431293487549,0.9,0.81,0.0004999999999999997
545,0.4132712185382843,0.5056421756744385,0.9,0.81,0.0004999999999999997
546,0.4132712483406067,0.505643367767334,0.9,0.81,0.0004999999999999997
547,0.41327112913131714,0.5056429505348206,0.9,0.81,0.0004999999999999997
548,0.4132712185382843,0.5056434869766235,0.9,0.81,0.0004999999999999997
549,0.4132712185382843,0.5056430101394653,0.9,0.81,0.0004999999999999997
550,0.41327112913131714,0.5056430101394653,0.9,0.81,0.0004999999999999997
551,0.41327112913131714,0.5056427121162415,0.9,0.81,0.0004999999999999997
552,0.4132711887359619,0.5056434273719788,0.9,0.81,0.0004999999999999997
553,0.4132709801197052,0.5056431293487549,0.9,0.81,0.0004999999999999997
554,0.41327109932899475,0.5056427121162415,0.9,0.81,0.0004999999999999997
555,0.41327103972435,0.505642831325531,0.9,0.81,0.0004999999999999997
556,0.41327106952667236,0.5056425333023071,0.9,0.81,0.0004999999999999997
557,0.4132709503173828,0.5056434273719788,0.9,0.81,0.0004999999999999997
558,0.41327103972435,0.5056426525115967,0.9,0.81,0.0004999999999999997
559,0.41327106952667236,0.5056431293487549,0.9,0.81,0.0004999999999999997
560,0.4132709503173828,0.505642294883728,0.9,0.81,0.0004999999999999997
561,0.4132709205150604,0.5056425333023071,0.9,0.81,0.0004999999999999997
562,0.4132709205150604,0.505642831325531,0.9,0.81,0.0004999999999999997
563,0.4132709205150604,0.5056423544883728,0.9,0.81,0.0004999999999999997
564,0.4132709205150604,0.5056415796279907,0.9,0.81,0.0004999999999999997
565,0.41327086091041565,0.5056434273719788,0.9,0.81,0.0004999999999999997
566,0.41327086091041565,0.5056430697441101,0.9,0.81,0.0004999999999999997
567,0.41327083110809326,0.505643367767334,0.9,0.81,0.0004999999999999997
568,0.4132709205150604,0.5056439638137817,0.9,0.81,0.0004999999999999997
569,0.4132708013057709,0.5056434273719788,0.9,0.81,0.0004999999999999997
570,0.4132708013057709,0.5056430697441101,0.9,0.81,0.0004999999999999997
571,0.41327083110809326,0.5056425333023071,0.9,0.81,0.0004999999999999997
572,0.4132707715034485,0.5056426525115967,0.9,0.81,0.0004999999999999997
573,0.4132707118988037,0.5056415796279907,0.9,0.81,0.0004999999999999997
574,0.4132706820964813,0.5056427121162415,0.9,0.81,0.0004999999999999997
575,0.4132706820964813,0.5056436657905579,0.9,0.81,0.0004999999999999997
576,0.4132706820964813,0.5056447386741638,0.9,0.81,0.0004999999999999997
577,0.4132706820964813,0.5056437253952026,0.9,0.81,0.0004999999999999997
578,0.41327065229415894,0.5056425333023071,0.9,0.81,0.0004999999999999997
579,0.41327059268951416,0.505641758441925,0.9,0.81,0.0004999999999999997
580,0.41327059268951416,0.5056415796279907,0.9,0.81,0.0004999999999999997
581,0.41327065229415894,0.5056423544883728,0.9,0.81,0.0004999999999999997
582,0.4132705628871918,0.5056426525115967,0.9,0.81,0.0004999999999999997
583,0.4132705628871918,0.5056421756744385,0.9,0.81,0.0004999999999999997
584,0.4132705330848694,0.5056414604187012,0.9,0.81,0.0004999999999999997
585,0.4132705330848694,0.505642831325531,0.9,0.81,0.0004999999999999997
586,0.4132705330848694,0.505642294883728,0.9,0.81,0.0004999999999999997
587,0.4132704436779022,0.5056425333023071,0.9,0.81,0.0004999999999999997
588,0.4132704436779022,0.5056419968605042,0.9,0.81,0.0004999999999999997
589,0.41327041387557983,0.5056431889533997,0.9,0.81,0.0004999999999999997
590,0.4132704436779022,0.5056430697441101,0.9,0.81,0.0004999999999999997
591,0.41327041387557983,0.5056432485580444,0.9,0.81,0.0004999999999999997
592,0.41327038407325745,0.5056425333023071,0.9,0.81,0.0004999999999999997
593,0.4132704436779022,0.505642831325531,0.9,0.81,0.0004999999999999997
594,0.4132702946662903,0.5056425929069519,0.9,0.81,0.0004999999999999997
595,0.41327035427093506,0.5056418776512146,0.9,0.81,0.0004999999999999997
596,0.41327038407325745,0.5056421756744385,0.9,0.81,0.0004999999999999997
597,0.4132702648639679,0.5056425929069519,0.9,0.81,0.0004999999999999997
598,0.4132702946662903,0.5056426525115967,0.9,0.81,0.0004999999999999997
599,0.4132702350616455,0.5056431293487549,0.9,0.81,0.0004999999999999997
600,0.4132702946662903,0.5056440830230713,0.9,0.81,0.0004999999999999997
601,0.4132702946662903,0.5056440830230713,0.9,0.81,0.0004999999999999997
602,0.4132702946662903,0.5056429505348206,0.9,0.81,0.0004999999999999997
603,0.4132702946662903,0.5056423544883728,0.9,0.81,0.0004999999999999997
604,0.4132702648639679,0.5056425333023071,0.9,0.81,0.0004999999999999997
605,0.4132702946662903,0.5056418776512146,0.9,0.81,0.0004999999999999997
606,0.4132702350616455,0.5056441426277161,0.9,0.81,0.0004999999999999997
607,0.4132702350616455,0.5056434869766235,0.9,0.81,0.0004999999999999997
608,0.41327011585235596,0.5056436061859131,0.9,0.81,0.0004999999999999997
609,0.41327017545700073,0.5056436657905579,0.9,0.81,0.0004999999999999997
610,0.41327014565467834,0.505643367767334,0.9,0.81,0.0004999999999999997
611,0.41327011585235596,0.5056436061859131,0.9,0.81,0.0004999999999999997
612,0.41327008605003357,0.5056434869766235,0.9,0.81,0.0004999999999999997
613,0.41327011585235596,0.5056431293487549,0.9,0.81,0.0004999999999999997
614,0.41327008605003357,0.5056437253952026,0.9,0.81,0.0004999999999999997
615,0.4132699966430664,0.5056427121162415,0.9,0.81,0.0004999999999999997
616,0.41327008605003357,0.5056427121162415,0.9,0.81,0.0004999999999999997
617,0.4132699966430664,0.5056429505348206,0.9,0.81,0.0004999999999999997
618,0.4132699966430664,0.505643904209137,0.9,0.81,0.0004999999999999997
619,0.4132699966430664,0.5056447386741638,0.9,0.81,0.0004999999999999997
620,0.4132699966430664,0.5056446194648743,0.9,0.81,0.0004999999999999997
621,0.41326990723609924,0.5056447386741638,0.9,0.81,0.00039685026299204955
622,0.413269966840744,0.5056452751159668,0.9,0.81,0.00039685026299204955
623,0.41326987743377686,0.505643904209137,0.9,0.81,0.00039685026299204955
624,0.41326990723609924,0.5056436657905579,0.9,0.81,0.00039685026299204955
625,0.41326987743377686,0.5056429505348206,0.9,0.81,0.00039685026299204955
626,0.41326990723609924,0.505643904209137,0.9,0.81,0.00039685026299204955
627,0.41326987743377686,0.5056436657905579,0.9,0.81,0.00039685026299204955
628,0.41326987743377686,0.5056436657905579,0.9,0.81,0.00039685026299204955
629,0.41326987743377686,0.5056437849998474,0.9,0.81,0.00039685026299204955
630,0.4132698178291321,0.5056436657905579,0.9,0.81,0.00039685026299204955
631,0.41326984763145447,0.505644679069519,0.9,0.81,0.00039685026299204955
632,0.4132697582244873,0.5056456327438354,0.9,0.81,0.00039685026299204955
633,0.4132698178291321,0.5056453943252563,0.9,0.81,0.00039685026299204955
634,0.4132697284221649,0.505645215511322,0.9,0.81,0.00039685026299204955
635,0.4132697284221649,0.5056442022323608,0.9,0.81,0.00039685026299204955
636,0.4132698178291321,0.5056440830230713,0.9,0.81,0.00039685026299204955
637,0.4132697284221649,0.5056437849998474,0.9,0.81,0.00039685026299204955
638,0.4132697582244873,0.5056443214416504,0.9,0.81,0.00039685026299204955
639,0.4132697284221649,0.5056455135345459,0.9,0.81,0.00039685026299204955
640,0.4132697284221649,0.5056448578834534,0.9,0.81,0.00039685026299204955
641,0.4132697284221649,0.5056440234184265,0.9,0.81,0.00039685026299204955
642,0.41326963901519775,0.5056430101394653,0.9,0.81,0.00039685026299204955
643,0.4132697284221649,0.5056442022323608,0.9,0.81,0.00039685026299204955
644,0.41326960921287537,0.5056447386741638,0.9,0.81,0.00039685026299204955
645,0.41326963901519775,0.5056447386741638,0.9,0.81,0.00039685026299204955
646,0.41326963901519775,0.5056440234184265,0.9,0.81,0.00039685026299204955
647,0.4132697284221649,0.5056443214416504,0.9,0.81,0.00039685026299204955
648,0.41326963901519775,0.5056445002555847,0.9,0.81,0.00039685026299204955
649,0.413269579410553,0.5056445598602295,0.9,0.81,0.00039685026299204955
650,0.413269579410553,0.5056449770927429,0.9,0.81,0.00039685026299204955
651,0.41326960921287537,0.5056448578834534,0.9,0.81,0.00039685026299204955
652,0.41326960921287537,0.5056449770927429,0.9,0.81,0.00039685026299204955
653,0.4132694900035858,0.5056448578834534,0.9,0.81,0.00039685026299204955
654,0.413269579410553,0.5056453943252563,0.9,0.81,0.00039685026299204955
655,0.4132695496082306,0.5056464672088623,0.9,0.81,0.00039685026299204955
656,0.4132695496082306,0.5056456923484802,0.9,0.81,0.00039685026299204955
657,0.4132694900035858,0.5056452751159668,0.9,0.81,0.00039685026299204955
658,0.4132694900035858,0.5056458711624146,0.9,0.81,0.00039685026299204955
659,0.4132694602012634,0.5056447386741638,0.9,0.81,0.00039685026299204955
660,0.4132694900035858,0.5056453943252563,0.9,0.81,0.00039685026299204955
661,0.4132694602012634,0.5056459903717041,0.9,0.81,0.00039685026299204955
662,0.4132695496082306,0.5056453943252563,0.9,0.81,0.00039685026299204955
663,0.4132694602012634,0.5056455135345459,0.9,0.81,0.00039685026299204955
664,0.4132694602012634,0.5056447386741638,0.9,0.81,0.00039685026299204955
665,0.4132694602012634,0.5056453943252563,0.9,0.81,0.00039685026299204955
666,0.41326943039894104,0.5056455135345459,0.9,0.81,0.00039685026299204955
667,0.41326940059661865,0.5056462287902832,0.9,0.81,0.00039685026299204955
668,0.41326943039894104,0.5056459307670593,0.9,0.81,0.00039685026299204955
669,0.41326943039894104,0.5056465268135071,0.9,0.81,0.00039685026299204955
670,0.41326940059661865,0.5056465864181519,0.9,0.81,0.00039685026299204955
671,0.4132693409919739,0.5056467652320862,0.9,0.81,0.00039685026299204955
672,0.4132693111896515,0.5056463479995728,0.9,0.81,0.00039685026299204955
673,0.4132693409919739,0.5056470632553101,0.9,0.81,0.00039685026299204955
674,0.41326943039894104,0.5056465268135071,0.9,0.81,0.00039685026299204955
675,0.4132692813873291,0.5056470036506653,0.9,0.81,0.00039685026299204955
676,0.4132693409919739,0.5056471824645996,0.9,0.81,0.00039685026299204955
677,0.4132693409919739,0.5056471824645996,0.9,0.81,0.00039685026299204955
678,0.4132693111896515,0.5056461095809937,0.9,0.81,0.00039685026299204955
679,0.4132693409919739,0.5056474804878235,0.9,0.81,0.00039685026299204955
680,0.4132692813873291,0.5056467652320862,0.9,0.81,0.00039685026299204955
681,0.41326919198036194,0.5056465864181519,0.9,0.81,0.00039685026299204955
682,0.4132692217826843,0.5056473016738892,0.9,0.81,0.00039685026299204955
683,0.4132692217826843,0.5056474804878235,0.9,0.81,0.00039685026299204955
684,0.41326919198036194,0.5056477785110474,0.9,0.81,0.00039685026299204955
685,0.41326919198036194,0.5056480765342712,0.9,0.81,0.00039685026299204955
686,0.41326913237571716,0.5056486129760742,0.9,0.81,0.00039685026299204955
687,0.4132692217826843,0.5056482553482056,0.9,0.81,0.00039685026299204955
688,0.41326913237571716,0.505648136138916,0.9,0.81,0.00039685026299204955
689,0.41326913237571716,0.5056478977203369,0.9,0.81,0.00039685026299204955
690,0.41326913237571716,0.5056473612785339,0.9,0.81,0.00039685026299204955
691,0.41326913237571716,0.5056473016738892,0.9,0.81,0.00039685026299204955
692,0.41326913237571716,0.5056484937667847,0.9,0.81,0.00039685026299204955
693,0.4132690727710724,0.505649745464325,0.9,0.81,0.00039685026299204955
694,0.41326916217803955,0.5056489706039429,0.9,0.81,0.00039685026299204955
695,0.41326916217803955,0.5056493878364563,0.9,0.81,0.00039685026299204955
696,0.4132690727710724,0.5056493282318115,0.9,0.81,0.00039685026299204955
697,0.41326913237571716,0.5056496262550354,0.9,0.81,0.00039685026299204955
698,0.41326904296875,0.5056485533714294,0.9,0.81,0.00039685026299204955
699,0.4132690131664276,0.5056486129760742,0.9,0.81,0.00039685026299204955
700,0.4132690727710724,0.5056490898132324,0.9,0.81,0.00039685026299204955
701,0.41326904296875,0.505649209022522,0.9,0.81,0.00039685026299204955
702,0.4132690131664276,0.5056496262550354,0.9,0.81,0.00039685026299204955
703,0.4132690131664276,0.5056506991386414,0.9,0.81,0.00039685026299204955
704,0.41326904296875,0.5056511759757996,0.9,0.81,0.00039685026299204955
705,0.4132690131664276,0.5056512951850891,0.9,0.81,0.00039685026299204955
706,0.4132690131664276,0.5056506395339966,0.9,0.81,0.00039685026299204955
707,0.41326895356178284,0.5056494474411011,0.9,0.81,0.00039685026299204955
708,0.41326892375946045,0.5056490898132324,0.9,0.81,0.00039685026299204955
709,0.41326895356178284,0.5056498050689697,0.9,0.81,0.00039685026299204955
710,0.41326889395713806,0.5056493878364563,0.9,0.81,0.00039685026299204955
711,0.41326889395713806,0.5056493282318115,0.9,0.81,0.00039685026299204955
712,0.41326892375946045,0.5056502223014832,0.9,0.81,0.00039685026299204955
713,0.41326889395713806,0.5056508183479309,0.9,0.81,0.00039685026299204955
714,0.41326892375946045,0.5056514143943787,0.9,0.81,0.00039685026299204955
715,0.41326889395713806,0.5056512951850891,0.9,0.81,0.00039685026299204955
716,0.41326889395713806,0.5056504607200623,0.9,0.81,0.00039685026299204955
717,0.4132688641548157,0.5056512355804443,0.9,0.81,0.00039685026299204955
718,0.4132688641548157,0.5056520700454712,0.9,0.81,0.00039685026299204955
719,0.4132688045501709,0.5056512951850891,0.9,0.81,0.00039685026299204955
720,0.4132688641548157,0.5056514143943787,0.9,0.81,0.00039685026299204955
721,0.4132688641548157,0.5056511163711548,0.9,0.81,0.00039685026299204955
722,0.4132688641548157,0.5056513547897339,0.9,0.81,0.00031498026247371797
723,0.4132688045501709,0.5056523084640503,0.9,0.81,0.00031498026247371797
724,0.4132688045501709,0.5056514739990234,0.9,0.81,0.00031498026247371797
725,0.41326868534088135,0.5056524276733398,0.9,0.81,0.00031498026247371797
726,0.4132688045501709,0.5056538581848145,0.9,0.81,0.00031498026247371797
727,0.4132688045501709,0.5056532621383667,0.9,0.81,0.00031498026247371797
728,0.4132688045501709,0.5056529641151428,0.9,0.81,0.00031498026247371797
729,0.4132687747478485,0.5056524276733398,0.9,0.81,0.00031498026247371797
730,0.41326865553855896,0.5056517124176025,0.9,0.81,0.00031498026247371797
731,0.41326868534088135,0.5056517124176025,0.9,0.81,0.00031498026247371797
732,0.41326868534088135,0.5056527853012085,0.9,0.81,0.00031498026247371797
733,0.4132687449455261,0.5056529641151428,0.9,0.81,0.00031498026247371797
734,0.41326868534088135,0.5056535005569458,0.9,0.81,0.00031498026247371797
735,0.4132687449455261,0.5056528449058533,0.9,0.81,0.00031498026247371797
736,0.41326865553855896,0.5056529641151428,0.9,0.81,0.00031498026247371797
737,0.4132687449455261,0.5056527853012085,0.9,0.81,0.00031498026247371797
738,0.41326865553855896,0.505653977394104,0.9,0.81,0.00031498026247371797
739,0.41326868534088135,0.505654513835907,0.9,0.81,0.00031498026247371797
740,0.41326865553855896,0.5056545734405518,0.9,0.81,0.00031498026247371797
741,0.41326865553855896,0.5056539177894592,0.9,0.81,0.00031498026247371797
742,0.41326865553855896,0.5056544542312622,0.9,0.81,0.00031498026247371797
743,0.41326868534088135,0.5056546926498413,0.9,0.81,0.00031498026247371797
744,0.41326865553855896,0.5056540966033936,0.9,0.81,0.00031498026247371797
745,0.4132685959339142,0.5056539177894592,0.9,0.81,0.00031498026247371797
746,0.41326865553855896,0.5056537985801697,0.9,0.81,0.00031498026247371797
747,0.4132685959339142,0.505653440952301,0.9,0.81,0.00031498026247371797
748,0.4132685959339142,0.505653977394104,0.9,0.81,0.00031498026247371797
749,0.4132686257362366,0.5056544542312622,0.9,0.81,0.00031498026247371797
750,0.4132686257362366,0.5056554079055786,0.9,0.81,0.00031498026247371797
751,0.4132686257362366,0.5056551694869995,0.9,0.81,0.00031498026247371797
752,0.4132685363292694,0.5056552290916443,0.9,0.81,0.00031498026247371797
753,0.4132685959339142,0.5056557655334473,0.9,0.81,0.00031498026247371797
754,0.4132686257362366,0.5056554675102234,0.9,0.81,0.00031498026247371797
755,0.4132685363292694,0.5056552290916443,0.9,0.81,0.00031498026247371797
756,0.4132685363292694,0.5056553483009338,0.9,0.81,0.00031498026247371797
757,0.4132685363292694,0.5056552290916443,0.9,0.81,0.00031498026247371797
758,0.4132685363292694,0.5056552886962891,0.9,0.81,0.00031498026247371797
759,0.4132685363292694,0.5056549906730652,0.9,0.81,0.00031498026247371797
760,0.4132685363292694,0.5056551098823547,0.9,0.81,0.00031498026247371797
761,0.413268506526947,0.5056551098823547,0.9,0.81,0.00031498026247371797
762,0.41326847672462463,0.5056559443473816,0.9,0.81,0.00031498026247371797
763,0.41326847672462463,0.505656361579895,0.9,0.81,0.00031498026247371797
764,0.41326844692230225,0.5056563019752502,0.9,0.81,0.00031498026247371797
765,0.4132685363292694,0.5056564807891846,0.9,0.81,0.00031498026247371797
766,0.41326844692230225,0.5056567788124084,0.9,0.81,0.00031498026247371797
767,0.41326844692230225,0.5056576132774353,0.9,0.81,0.00031498026247371797
768,0.4132685363292694,0.5056572556495667,0.9,0.81,0.00031498026247371797
769,0.41326844692230225,0.5056574940681458,0.9,0.81,0.00031498026247371797
770,0.41326847672462463,0.5056574940681458,0.9,0.81,0.00031498026247371797
771,0.41326844692230225,0.5056585073471069,0.9,0.81,0.00031498026247371797
772,0.41326844692230225,0.5056582093238831,0.9,0.81,0.00031498026247371797
773,0.41326838731765747,0.5056586265563965,0.9,0.81,0.00031498026247371797
774,0.41326838731765747,0.5056583285331726,0.9,0.81,0.00031498026247371797
775,0.41326838731765747,0.5056580901145935,0.9,0.81,0.00031498026247371797
776,0.4132683575153351,0.5056577324867249,0.9,0.81,0.00031498026247371797
777,0.4132683277130127,0.505657434463501,0.9,0.81,0.00031498026247371797
778,0.4132683575153351,0.5056580305099487,0.9,0.81,0.00031498026247371797
779,0.41326838731765747,0.5056589841842651,0.9,0.81,0.00031498026247371797
780,0.41326844692230225,0.5056596994400024,0.9,0.81,0.00031498026247371797
781,0.41326838731765747,0.5056593418121338,0.9,0.81,0.00031498026247371797
782,0.41326823830604553,0.5056598782539368,0.9,0.81,0.00031498026247371797
783,0.4132683575153351,0.5056594610214233,0.9,0.81,0.00031498026247371797
784,0.4132683277130127,0.5056598782539368,0.9,0.81,0.00031498026247371797
785,0.4132683277130127,0.505659818649292,0.9,0.81,0.00031498026247371797
786,0.4132683277130127,0.505659818649292,0.9,0.81,0.00031498026247371797
787,0.4132683277130127,0.5056595802307129,0.9,0.81,0.00031498026247371797
788,0.4132683277130127,0.5056594610214233,0.9,0.81,0.00031498026247371797
789,0.4132682681083679,0.5056600570678711,0.9,0.81,0.00031498026247371797
790,0.4132682681083679,0.5056594014167786,0.9,0.81,0.00031498026247371797
791,0.41326823830604553,0.5056588053703308,0.9,0.81,0.00031498026247371797
792,0.4132682681083679,0.5056599378585815,0.9,0.81,0.00031498026247371797
793,0.4132682681083679,0.5056599974632263,0.9,0.81,0.00031498026247371797
794,0.4132682681083679,0.5056601762771606,0.9,0.81,0.00031498026247371797
795,0.4132682681083679,0.50566166639328,0.9,0.81,0.00031498026247371797
796,0.4132682681083679,0.5056620240211487,0.9,0.81,0.00031498026247371797
797,0.41326823830604553,0.5056625008583069,0.9,0.81,0.00031498026247371797
798,0.4132682681083679,0.5056626796722412,0.9,0.81,0.00031498026247371797
799,0.41326820850372314,0.5056617856025696,0.9,0.81,0.00031498026247371797
800,0.41326817870140076,0.505662202835083,0.9,0.81,0.00031498026247371797
801,0.41326817870140076,0.5056620240211487,0.9,0.81,0.00031498026247371797
802,0.41326820850372314,0.5056621432304382,0.9,0.81,0.00031498026247371797
803,0.41326820850372314,0.5056618452072144,0.9,0.81,0.00031498026247371797
804,0.41326817870140076,0.5056617259979248,0.9,0.81,0.00031498026247371797
805,0.41326817870140076,0.5056625008583069,0.9,0.81,0.00031498026247371797
806,0.41326820850372314,0.5056636929512024,0.9,0.81,0.00031498026247371797
807,0.413268119096756,0.5056635141372681,0.9,0.81,0.00031498026247371797
808,0.41326817870140076,0.5056635737419128,0.9,0.81,0.00031498026247371797
809,0.413268119096756,0.5056630969047546,0.9,0.81,0.00031498026247371797
810,0.41326817870140076,0.5056635141372681,0.9,0.81,0.00031498026247371797
811,0.4132680892944336,0.5056636929512024,0.9,0.81,0.00031498026247371797
812,0.413268119096756,0.5056629776954651,0.9,0.81,0.00031498026247371797
813,0.4132680892944336,0.505662739276886,0.9,0.81,0.00031498026247371797
814,0.413268119096756,0.505662739276886,0.9,0.81,0.00031498026247371797
815,0.41326799988746643,0.5056625008583069,0.9,0.81,0.00031498026247371797
816,0.4132680892944336,0.5056627988815308,0.9,0.81,0.00031498026247371797
817,0.413268119096756,0.5056636333465576,0.9,0.81,0.00031498026247371797
818,0.413268119096756,0.5056638121604919,0.9,0.81,0.00031498026247371797
819,0.4132680594921112,0.5056641101837158,0.9,0.81,0.00031498026247371797
820,0.4132680594921112,0.5056646466255188,0.9,0.81,0.00031498026247371797
821,0.413268119096756,0.5056655406951904,0.9,0.81,0.00031498026247371797
822,0.41326799988746643,0.5056652426719666,0.9,0.81,0.00031498026247371797
823,0.41326799988746643,0.505665123462677,0.9,0.81,0.0002499999999999997
824,0.4132680594921112,0.5056653618812561,0.9,0.81,0.0002499999999999997
825,0.41326799988746643,0.5056658387184143,0.9,0.81,0.0002499999999999997
826,0.41326799988746643,0.5056659579277039,0.9,0.81,0.0002499999999999997
827,0.41326799988746643,0.5056663155555725,0.9,0.81,0.0002499999999999997
828,0.41326799988746643,0.5056666731834412,0.9,0.81,0.0002499999999999997
829,0.4132680594921112,0.5056666135787964,0.9,0.81,0.0002499999999999997
830,0.4132680594921112,0.505666971206665,0.9,0.81,0.0002499999999999997
831,0.41326799988746643,0.5056662559509277,0.9,0.81,0.0002499999999999997
832,0.41326799988746643,0.5056662559509277,0.9,0.81,0.0002499999999999997
833,0.41326799988746643,0.5056664347648621,0.9,0.81,0.0002499999999999997
834,0.41326794028282166,0.5056670308113098,0.9,0.81,0.0002499999999999997
835,0.41326797008514404,0.5056676268577576,0.9,0.81,0.0002499999999999997
836,0.41326797008514404,0.5056679248809814,0.9,0.81,0.0002499999999999997
837,0.41326797008514404,0.505668580532074,0.9,0.81,0.0002499999999999997
838,0.41326791048049927,0.5056682825088501,0.9,0.81,0.0002499999999999997
839,0.41326799988746643,0.5056678056716919,0.9,0.81,0.0002499999999999997
840,0.41326797008514404,0.5056678652763367,0.9,0.81,0.0002499999999999997
841,0.4132678210735321,0.5056669116020203,0.9,0.81,0.0002499999999999997
842,0.41326797008514404,0.5056666135787964,0.9,0.81,0.0002499999999999997
843,0.41326794028282166,0.5056662559509277,0.9,0.81,0.0002499999999999997
844,0.41326794028282166,0.5056668519973755,0.9,0.81,0.0002499999999999997
845,0.41326797008514404,0.5056679248809814,0.9,0.81,0.0002499999999999997
846,0.41326791048049927,0.505667507648468,0.9,0.81,0.0002499999999999997
847,0.41326791048049927,0.5056676864624023,0.9,0.81,0.0002499999999999997
848,0.4132678508758545,0.5056675672531128,0.9,0.81,0.0002499999999999997
849,0.4132678508758545,0.5056679844856262,0.9,0.81,0.0002499999999999997
850,0.4132678210735321,0.5056683421134949,0.9,0.81,0.0002499999999999997
851,0.4132678210735321,0.505668580532074,0.9,0.81,0.0002499999999999997
852,0.41326791048049927,0.5056689977645874,0.9,0.81,0.0002499999999999997
853,0.41326791048049927,0.5056694746017456,0.9,0.81,0.0002499999999999997
854,0.41326791048049927,0.5056700110435486,0.9,0.81,0.0002499999999999997
855,0.41326794028282166,0.5056699514389038,0.9,0.81,0.0002499999999999997
856,0.4132677912712097,0.5056703090667725,0.9,0.81,0.0002499999999999997
857,0.41326791048049927,0.5056703090667725,0.9,0.81,0.0002499999999999997
858,0.41326791048049927,0.5056707262992859,0.9,0.81,0.0002499999999999997
859,0.4132678210735321,0.5056702494621277,0.9,0.81,0.0002499999999999997
860,0.4132678210735321,0.5056701302528381,0.9,0.81,0.0002499999999999997
861,0.4132677912712097,0.505669355392456,0.9,0.81,0.0002499999999999997
862,0.41326791048049927,0.5056694746017456,0.9,0.81,0.0002499999999999997
863,0.4132677912712097,0.5056703686714172,0.9,0.81,0.0002499999999999997
864,0.4132678210735321,0.5056700706481934,0.9,0.81,0.0002499999999999997
865,0.41326773166656494,0.5056709051132202,0.9,0.81,0.0002499999999999997
866,0.4132677912712097,0.5056711435317993,0.9,0.81,0.0002499999999999997
867,0.4132678508758545,0.5056717395782471,0.9,0.81,0.0002499999999999997
868,0.4132678210735321,0.5056725144386292,0.9,0.81,0.0002499999999999997
869,0.4132677912712097,0.5056726932525635,0.9,0.81,0.0002499999999999997
870,0.4132677912712097,0.5056720972061157,0.9,0.81,0.0002499999999999997
871,0.4132677912712097,0.505672037601471,0.9,0.81,0.0002499999999999997
872,0.4132678210735321,0.5056720972061157,0.9,0.81,0.0002499999999999997
873,0.4132678210735321,0.5056722164154053,0.9,0.81,0.0002499999999999997
874,0.41326773166656494,0.5056725144386292,0.9,0.81,0.0002499999999999997
875,0.41326773166656494,0.5056716203689575,0.9,0.81,0.0002499999999999997
876,0.41326770186424255,0.5056718587875366,0.9,0.81,0.0002499999999999997
877,0.41326770186424255,0.50567227602005,0.9,0.81,0.0002499999999999997
878,0.41326773166656494,0.5056720972061157,0.9,0.81,0.0002499999999999997
879,0.41326770186424255,0.505671501159668,0.9,0.81,0.0002499999999999997
880,0.41326770186424255,0.5056722164154053,0.9,0.81,0.0002499999999999997
881,0.4132678210735321,0.505672037601471,0.9,0.81,0.0002499999999999997
882,0.41326770186424255,0.505673348903656,0.9,0.81,0.0002499999999999997
883,0.41326770186424255,0.5056734681129456,0.9,0.81,0.0002499999999999997
884,0.41326773166656494,0.5056743025779724,0.9,0.81,0.0002499999999999997
885,0.41326767206192017,0.5056736469268799,0.9,0.81,0.0002499999999999997
886,0.41326767206192017,0.5056739449501038,0.9,0.81,0.0002499999999999997
887,0.41326767206192017,0.5056737065315247,0.9,0.81,0.0002499999999999997
888,0.41326767206192017,0.5056747794151306,0.9,0.81,0.0002499999999999997
889,0.41326767206192017,0.5056756734848022,0.9,0.81,0.0002499999999999997
890,0.41326767206192017,0.5056755542755127,0.9,0.81,0.0002499999999999997
891,0.41326767206192017,0.5056755542755127,0.9,0.81,0.0002499999999999997
892,0.4132676422595978,0.5056759715080261,0.9,0.81,0.0002499999999999997
893,0.4132676422595978,0.5056748390197754,0.9,0.81,0.0002499999999999997
894,0.41326767206192017,0.5056753754615784,0.9,0.81,0.0002499999999999997
895,0.4132676422595978,0.5056755542755127,0.9,0.81,0.0002499999999999997
896,0.4132676422595978,0.5056763291358948,0.9,0.81,0.0002499999999999997
897,0.413267582654953,0.5056756138801575,0.9,0.81,0.0002499999999999997
898,0.41326767206192017,0.5056757926940918,0.9,0.81,0.0002499999999999997
899,0.4132676422595978,0.5056751370429993,0.9,0.81,0.0002499999999999997
900,0.41326767206192017,0.5056754350662231,0.9,0.81,0.0002499999999999997
901,0.413267582654953,0.505675733089447,0.9,0.81,0.0002499999999999997
902,0.413267582654953,0.5056762099266052,0.9,0.81,0.0002499999999999997
903,0.413267582654953,0.5056765675544739,0.9,0.81,0.0002499999999999997
904,0.4132675528526306,0.50567626953125,0.9,0.81,0.0002499999999999997
905,0.413267582654953,0.50567626953125,0.9,0.81,0.0002499999999999997
906,0.4132675528526306,0.5056767463684082,0.9,0.81,0.0002499999999999997
907,0.4132675528526306,0.5056765079498291,0.9,0.81,0.0002499999999999997
908,0.4132675528526306,0.5056768655776978,0.9,0.81,0.0002499999999999997
909,0.4132675230503082,0.5056770443916321,0.9,0.81,0.0002499999999999997
910,0.4132675230503082,0.505678653717041,0.9,0.81,0.0002499999999999997
911,0.4132675528526306,0.505678117275238,0.9,0.81,0.0002499999999999997
912,0.413267582654953,0.5056779384613037,0.9,0.81,0.0002499999999999997
913,0.4132675230503082,0.5056784152984619,0.9,0.81,0.0002499999999999997
914,0.4132676422595978,0.5056784152984619,0.9,0.81,0.0002499999999999997
915,0.41326749324798584,0.5056779980659485,0.9,0.81,0.0002499999999999997
916,0.413267582654953,0.505678117275238,0.9,0.81,0.0002499999999999997
917,0.4132675528526306,0.5056782364845276,0.9,0.81,0.0002499999999999997
918,0.4132675528526306,0.5056783556938171,0.9,0.81,0.0002499999999999997
919,0.4132675230503082,0.5056790113449097,0.9,0.81,0.0002499999999999997
920,0.41326749324798584,0.5056796073913574,0.9,0.81,0.0002499999999999997
921,0.4132675230503082,0.5056787133216858,0.9,0.81,0.0002499999999999997
922,0.41326749324798584,0.5056793093681335,0.9,0.81,0.0002499999999999997
923,0.4132675230503082,0.5056800246238708,0.9,0.81,0.0002499999999999997
924,0.41326749324798584,0.5056806802749634,0.9,0.81,0.00019842513149602464
925,0.41326749324798584,0.5056801438331604,0.9,0.81,0.00019842513149602464
926,0.4132675230503082,0.5056799650192261,0.9,0.81,0.00019842513149602464
927,0.41326749324798584,0.5056796073913574,0.9,0.81,0.00019842513149602464
928,0.4132674038410187,0.5056801438331604,0.9,0.81,0.00019842513149602464
929,0.41326743364334106,0.5056806802749634,0.9,0.81,0.00019842513149602464
930,0.41326749324798584,0.5056805610656738,0.9,0.81,0.00019842513149602464
931,0.41326743364334106,0.5056808590888977,0.9,0.81,0.00019842513149602464
932,0.41326743364334106,0.5056814551353455,0.9,0.81,0.00019842513149602464
933,0.4132674038410187,0.5056822896003723,0.9,0.81,0.00019842513149602464
934,0.41326743364334106,0.5056822896003723,0.9,0.81,0.00019842513149602464
935,0.41326743364334106,0.5056818127632141,0.9,0.81,0.00019842513149602464
936,0.41326743364334106,0.5056813359260559,0.9,0.81,0.00019842513149602464
937,0.41326749324798584,0.5056809186935425,0.9,0.81,0.00019842513149602464
938,0.41326743364334106,0.5056814551353455,0.9,0.81,0.00019842513149602464
939,0.41326743364334106,0.5056823492050171,0.9,0.81,0.00019842513149602464
940,0.4132674038410187,0.5056827664375305,0.9,0.81,0.00019842513149602464
941,0.41326743364334106,0.505683422088623,0.9,0.81,0.00019842513149602464
942,0.4132673740386963,0.5056837201118469,0.9,0.81,0.00019842513149602464
943,0.41326743364334106,0.5056834816932678,0.9,0.81,0.00019842513149602464
944,0.4132674038410187,0.5056832432746887,0.9,0.81,0.00019842513149602464
945,0.4132674038410187,0.5056829452514648,0.9,0.81,0.00019842513149602464
946,0.4132673740386963,0.5056830048561096,0.9,0.81,0.00019842513149602464
947,0.4132673740386963,0.5056846737861633,0.9,0.81,0.00019842513149602464
948,0.4132673740386963,0.505684494972229,0.9,0.81,0.00019842513149602464
949,0.41326743364334106,0.5056842565536499,0.9,0.81,0.00019842513149602464
950,0.4132673144340515,0.5056843161582947,0.9,0.81,0.00019842513149602464
951,0.4132673740386963,0.5056841373443604,0.9,0.81,0.00019842513149602464
952,0.4132674038410187,0.5056848526000977,0.9,0.81,0.00019842513149602464
953,0.4132673144340515,0.5056846737861633,0.9,0.81,0.00019842513149602464
954,0.4132673740386963,0.505684494972229,0.9,0.81,0.00019842513149602464
955,0.4132674038410187,0.5056841969490051,0.9,0.81,0.00019842513149602464
956,0.4132673740386963,0.5056843161582947,0.9,0.81,0.00019842513149602464
957,0.4132673144340515,0.505683958530426,0.9,0.81,0.00019842513149602464
958,0.4132674038410187,0.505683422088623,0.9,0.81,0.00019842513149602464
959,0.4132673144340515,0.5056837797164917,0.9,0.81,0.00019842513149602464
960,0.4132673740386963,0.5056838989257812,0.9,0.81,0.00019842513149602464
961,0.4132672846317291,0.5056838393211365,0.9,0.81,0.00019842513149602464
962,0.4132673740386963,0.505683958530426,0.9,0.81,0.00019842513149602464
963,0.4132673144340515,0.5056843757629395,0.9,0.81,0.00019842513149602464
964,0.4132673144340515,0.5056838393211365,0.9,0.81,0.00019842513149602464
965,0.4132673144340515,0.5056838393211365,0.9,0.81,0.00019842513149602464
966,0.41326725482940674,0.5056838989257812,0.9,0.81,0.00019842513149602464
967,0.41326725482940674,0.5056849122047424,0.9,0.81,0.00019842513149602464
968,0.4132673144340515,0.505685567855835,0.9,0.81,0.00019842513149602464
969,0.4132672846317291,0.5056861639022827,0.9,0.81,0.00019842513149602464
970,0.4132672846317291,0.5056856870651245,0.9,0.81,0.00019842513149602464
971,0.4132672846317291,0.5056856870651245,0.9,0.81,0.00019842513149602464
972,0.4132672846317291,0.5056856274604797,0.9,0.81,0.00019842513149602464
973,0.4132672846317291,0.5056865811347961,0.9,0.81,0.00019842513149602464
974,0.4132673740386963,0.5056868195533752,0.9,0.81,0.00019842513149602464
975,0.41326725482940674,0.5056865811347961,0.9,0.81,0.00019842513149602464
976,0.4132672846317291,0.5056869387626648,0.9,0.81,0.00019842513149602464
977,0.41326725482940674,0.5056874752044678,0.9,0.81,0.00019842513149602464
978,0.4132673144340515,0.505687415599823,0.9,0.81,0.00019842513149602464
979,0.41326725482940674,0.5056881904602051,0.9,0.81,0.00019842513149602464
980,0.4132672846317291,0.5056883096694946,0.9,0.81,0.00019842513149602464
981,0.41326725482940674,0.5056875944137573,0.9,0.81,0.00019842513149602464
982,0.4132671654224396,0.5056874752044678,0.9,0.81,0.00019842513149602464
983,0.41326725482940674,0.5056865215301514,0.9,0.81,0.00019842513149602464
984,0.4132672846317291,0.5056866407394409,0.9,0.81,0.00019842513149602464
985,0.41326725482940674,0.5056872367858887,0.9,0.81,0.00019842513149602464
986,0.41326725482940674,0.5056870579719543,0.9,0.81,0.00019842513149602464
987,0.41326722502708435,0.5056871175765991,0.9,0.81,0.00019842513149602464
988,0.41326722502708435,0.5056872367858887,0.9,0.81,0.00019842513149602464
989,0.4132672846317291,0.5056872963905334,0.9,0.81,0.00019842513149602464
990,0.41326722502708435,0.5056872963905334,0.9,0.81,0.00019842513149602464
991,0.41326722502708435,0.5056870579719543,0.9,0.81,0.00019842513149602464
992,0.4132671654224396,0.505687952041626,0.9,0.81,0.00019842513149602464
993,0.41326722502708435,0.5056881904602051,0.9,0.81,0.00019842513149602464
994,0.4132672846317291,0.5056885480880737,0.9,0.81,0.00019842513149602464
995,0.4132671654224396,0.5056881904602051,0.9,0.81,0.00019842513149602464
996,0.41326722502708435,0.5056890845298767,0.9,0.81,0.00019842513149602464
997,0.41326725482940674,0.5056892037391663,0.9,0.81,0.00019842513149602464
998,0.41326725482940674,0.5056896805763245,0.9,0.81,0.00019842513149602464
999,0.4132671654224396,0.5056898593902588,0.9,0.81,0.00019842513149602464
1000,0.41326725482940674,0.5056893229484558,0.9,0.81,0.00019842513149602464
1001,0.41326722502708435,0.5056901574134827,0.9,0.81,0.00019842513149602464
1002,0.4132671654224396,0.50569087266922,0.9,0.81,0.00019842513149602464
1003,0.4132671654224396,0.5056913495063782,0.9,0.81,0.00019842513149602464
1004,0.4132671356201172,0.5056920051574707,0.9,0.81,0.00019842513149602464
1005,0.4132671356201172,0.5056924223899841,0.9,0.81,0.00019842513149602464
1006,0.4132671654224396,0.5056928396224976,0.9,0.81,0.00019842513149602464
1007,0.4132671356201172,0.5056920051574707,0.9,0.81,0.00019842513149602464
1008,0.4132671654224396,0.5056917667388916,0.9,0.81,0.00019842513149602464
1009,0.4132671058177948,0.5056918859481812,0.9,0.81,0.00019842513149602464
1010,0.4132671058177948,0.5056917071342468,0.9,0.81,0.00019842513149602464
1011,0.41326722502708435,0.5056914687156677,0.9,0.81,0.00019842513149602464
1012,0.4132671654224396,0.5056915879249573,0.9,0.81,0.00019842513149602464
1013,0.4132671058177948,0.5056907534599304,0.9,0.81,0.00019842513149602464
1014,0.4132671058177948,0.5056909322738647,0.9,0.81,0.00019842513149602464
1015,0.4132671356201172,0.5056911706924438,0.9,0.81,0.00019842513149602464
1016,0.4132671356201172,0.5056920051574707,0.9,0.81,0.00019842513149602464
1017,0.4132671058177948,0.5056923627853394,0.9,0.81,0.00019842513149602464
1018,0.41326704621315,0.5056929588317871,0.9,0.81,0.00019842513149602464
1019,0.4132671654224396,0.5056924819946289,0.9,0.81,0.00019842513149602464
1020,0.41326704621315,0.5056921243667603,0.9,0.81,0.00019842513149602464
1021,0.41326704621315,0.5056931376457214,0.9,0.81,0.00019842513149602464
1022,0.41326704621315,0.5056933760643005,0.9,0.81,0.00019842513149602464
1023,0.41326704621315,0.505693256855011,0.9,0.81,0.00019842513149602464
1024,0.41326704621315,0.5056936740875244,0.9,0.81,0.00019842513149602464
1025,0.4132671356201172,0.5056942105293274,0.9,0.81,0.00015749013123685888
1026,0.4132671058177948,0.505694568157196,0.9,0.81,0.00015749013123685888
1027,0.41326704621315,0.5056940317153931,0.9,0.81,0.00015749013123685888
1028,0.41326704621315,0.5056939125061035,0.9,0.81,0.00015749013123685888
1029,0.4132671654224396,0.5056937336921692,0.9,0.81,0.00015749013123685888
1030,0.4132671058177948,0.5056939125061035,0.9,0.81,0.00015749013123685888
1031,0.4132671058177948,0.5056945085525513,0.9,0.81,0.00015749013123685888
1032,0.4132671058177948,0.5056950449943542,0.9,0.81,0.00015749013123685888
1033,0.41326704621315,0.5056946277618408,0.9,0.81,0.00015749013123685888
1034,0.41326704621315,0.5056955218315125,0.9,0.81,0.00015749013123685888
1035,0.41326704621315,0.5056947469711304,0.9,0.81,0.00015749013123685888
1036,0.4132671058177948,0.5056953430175781,0.9,0.81,0.00015749013123685888
1037,0.41326704621315,0.5056959390640259,0.9,0.81,0.00015749013123685888
1038,0.41326704621315,0.5056960582733154,0.9,0.81,0.00015749013123685888
1039,0.41326698660850525,0.5056964755058289,0.9,0.81,0.00015749013123685888
1040,0.41326704621315,0.5056965351104736,0.9,0.81,0.00015749013123685888
1041,0.41326704621315,0.5056970715522766,0.9,0.81,0.00015749013123685888
1042,0.41326701641082764,0.5056967735290527,0.9,0.81,0.00015749013123685888
1043,0.41326701641082764,0.5056963562965393,0.9,0.81,0.00015749013123685888
1044,0.41326701641082764,0.5056965351104736,0.9,0.81,0.00015749013123685888
1045,0.41326704621315,0.505696713924408,0.9,0.81,0.00015749013123685888
1046,0.41326701641082764,0.5056965351104736,0.9,0.81,0.00015749013123685888
1047,0.41326701641082764,0.5056965351104736,0.9,0.81,0.00015749013123685888
1048,0.41326704621315,0.5056968927383423,0.9,0.81,0.00015749013123685888
1049,0.41326701641082764,0.5056965351104736,0.9,0.81,0.00015749013123685888
1050,0.41326701641082764,0.505696713924408,0.9,0.81,0.00015749013123685888
1051,0.41326698660850525,0.5056970715522766,0.9,0.81,0.00015749013123685888
1052,0.41326698660850525,0.5056968927383423,0.9,0.81,0.00015749013123685888
1053,0.41326698660850525,0.5056967735290527,0.9,0.81,0.00015749013123685888
1054,0.4132668972015381,0.505696713924408,0.9,0.81,0.00015749013123685888
1055,0.4132668972015381,0.5056963562965393,0.9,0.81,0.00015749013123685888
1056,0.41326695680618286,0.5056970119476318,0.9,0.81,0.00015749013123685888
1057,0.41326698660850525,0.5056979060173035,0.9,0.81,0.00015749013123685888
1058,0.41326698660850525,0.505698025226593,0.9,0.81,0.00015749013123685888
1059,0.41326695680618286,0.5056984424591064,0.9,0.81,0.00015749013123685888
1060,0.41326698660850525,0.5056981444358826,0.9,0.81,0.00015749013123685888
1061,0.41326701641082764,0.5056981444358826,0.9,0.81,0.00015749013123685888
1062,0.41326701641082764,0.5056982636451721,0.9,0.81,0.00015749013123685888
1063,0.41326698660850525,0.5056989789009094,0.9,0.81,0.00015749013123685888
1064,0.41326698660850525,0.5056989192962646,0.9,0.81,0.00015749013123685888
1065,0.41326698660850525,0.5056989192962646,0.9,0.81,0.00015749013123685888
1066,0.41326704621315,0.5056989789009094,0.9,0.81,0.00015749013123685888
1067,0.41326698660850525,0.5056997537612915,0.9,0.81,0.00015749013123685888
1068,0.41326695680618286,0.505700409412384,0.9,0.81,0.00015749013123685888
1069,0.41326695680618286,0.5057008266448975,0.9,0.81,0.00015749013123685888
1070,0.4132668972015381,0.5057006478309631,0.9,0.81,0.00015749013123685888
1071,0.41326695680618286,0.5056998133659363,0.9,0.81,0.00015749013123685888
1072,0.4132668972015381,0.505699634552002,0.9,0.81,0.00015749013123685888
1073,0.41326695680618286,0.505699872970581,0.9,0.81,0.00015749013123685888
1074,0.41326695680618286,0.5057001709938049,0.9,0.81,0.00015749013123685888
1075,0.41326695680618286,0.505699872970581,0.9,0.81,0.00015749013123685888
1076,0.4132668972015381,0.5057001113891602,0.9,0.81,0.00015749013123685888
1077,0.4132668972015381,0.5056996941566467,0.9,0.81,0.00015749013123685888
1078,0.4132668972015381,0.505699634552002,0.9,0.81,0.00015749013123685888
1079,0.4132668972015381,0.5057000517845154,0.9,0.81,0.00015749013123685888
1080,0.41326695680618286,0.5056999325752258,0.9,0.81,0.00015749013123685888
1081,0.41326695680618286,0.5057002902030945,0.9,0.81,0.00015749013123685888
1082,0.4132668972015381,0.505699872970581,0.9,0.81,0.00015749013123685888
1083,0.4132668972015381,0.505700409412384,0.9,0.81,0.00015749013123685888
1084,0.4132668673992157,0.5057011246681213,0.9,0.81,0.00015749013123685888
1085,0.4132668972015381,0.5057021975517273,0.9,0.81,0.00015749013123685888
1086,0.41326695680618286,0.5057029128074646,0.9,0.81,0.00015749013123685888
1087,0.41326677799224854,0.5057024955749512,0.9,0.81,0.00015749013123685888
1088,0.41326695680618286,0.5057022571563721,0.9,0.81,0.00015749013123685888
1089,0.4132668673992157,0.5057021379470825,0.9,0.81,0.00015749013123685888
1090,0.4132668673992157,0.5057024359703064,0.9,0.81,0.00015749013123685888
1091,0.4132668972015381,0.5057024359703064,0.9,0.81,0.00015749013123685888
1092,0.4132668673992157,0.5057024955749512,0.9,0.81,0.00015749013123685888
1093,0.4132668972015381,0.5057018399238586,0.9,0.81,0.00015749013123685888
1094,0.4132668375968933,0.5057019591331482,0.9,0.81,0.00015749013123685888
1095,0.4132668673992157,0.505702018737793,0.9,0.81,0.00015749013123685888
1096,0.4132668972015381,0.5057021975517273,0.9,0.81,0.00015749013123685888
1097,0.4132668673992157,0.5057020783424377,0.9,0.81,0.00015749013123685888
1098,0.4132668972015381,0.5057017803192139,0.9,0.81,0.00015749013123685888
1099,0.4132668673992157,0.5057023763656616,0.9,0.81,0.00015749013123685888
1100,0.41326677799224854,0.5057030916213989,0.9,0.81,0.00015749013123685888
1101,0.4132668673992157,0.5057032108306885,0.9,0.81,0.00015749013123685888
1102,0.4132668673992157,0.505702793598175,0.9,0.81,0.00015749013123685888
1103,0.4132668673992157,0.5057030320167542,0.9,0.81,0.00015749013123685888
1104,0.4132668972015381,0.505703330039978,0.9,0.81,0.00015749013123685888
1105,0.4132668673992157,0.5057033896446228,0.9,0.81,0.00015749013123685888
1106,0.4132668375968933,0.5057032108306885,0.9,0.81,0.00015749013123685888
1107,0.4132668673992157,0.5057035684585571,0.9,0.81,0.00015749013123685888
1108,0.41326677799224854,0.5057045221328735,0.9,0.81,0.00015749013123685888
1109,0.41326677799224854,0.505704939365387,0.9,0.81,0.00015749013123685888
1110,0.41326677799224854,0.5057049989700317,0.9,0.81,0.00015749013123685888
1111,0.41326674818992615,0.5057048201560974,0.9,0.81,0.00015749013123685888
1112,0.4132668375968933,0.5057042837142944,0.9,0.81,0.00015749013123685888
1113,0.41326677799224854,0.5057046413421631,0.9,0.81,0.00015749013123685888
1114,0.41326677799224854,0.5057052373886108,0.9,0.81,0.00015749013123685888
1115,0.4132668375968933,0.5057054758071899,0.9,0.81,0.00015749013123685888
1116,0.4132668375968933,0.5057054162025452,0.9,0.81,0.00015749013123685888
1117,0.41326677799224854,0.5057052373886108,0.9,0.81,0.00015749013123685888
1118,0.41326674818992615,0.5057051181793213,0.9,0.81,0.00015749013123685888
1119,0.4132668673992157,0.5057047009468079,0.9,0.81,0.00015749013123685888
1120,0.4132668375968933,0.5057047009468079,0.9,0.81,0.00015749013123685888
1121,0.4132668375968933,0.5057042837142944,0.9,0.81,0.00015749013123685888
1122,0.4132668375968933,0.5057034492492676,0.9,0.81,0.00015749013123685888
1123,0.41326671838760376,0.5057035684585571,0.9,0.81,0.00015749013123685888
1124,0.41326674818992615,0.5057039856910706,0.9,0.81,0.00015749013123685888
1125,0.4132668375968933,0.5057045221328735,0.9,0.81,0.00015749013123685888
1126,0.41326674818992615,0.5057052373886108,0.9,0.81,0.00012499999999999976
1127,0.4132668673992157,0.5057051777839661,0.9,0.81,0.00012499999999999976
1128,0.41326674818992615,0.5057054162025452,0.9,0.81,0.00012499999999999976
1129,0.41326671838760376,0.5057056546211243,0.9,0.81,0.00012499999999999976
1130,0.41326671838760376,0.5057060718536377,0.9,0.81,0.00012499999999999976
1131,0.41326674818992615,0.5057072043418884,0.9,0.81,0.00012499999999999976
1132,0.41326668858528137,0.5057075023651123,0.9,0.81,0.00012499999999999976
1133,0.41326671838760376,0.5057076811790466,0.9,0.81,0.00012499999999999976
1134,0.41326674818992615,0.5057083964347839,0.9,0.81,0.00012499999999999976
1135,0.41326674818992615,0.5057080984115601,0.9,0.81,0.00012499999999999976
1136,0.41326671838760376,0.5057082772254944,0.9,0.81,0.00012499999999999976
1137,0.41326671838760376,0.5057079195976257,0.9,0.81,0.00012499999999999976
1138,0.41326671838760376,0.505707859992981,0.9,0.81,0.00012499999999999976
1139,0.41326668858528137,0.5057083368301392,0.9,0.81,0.00012499999999999976
1140,0.41326671838760376,0.5057079195976257,0.9,0.81,0.00012499999999999976
1141,0.41326668858528137,0.5057082176208496,0.9,0.81,0.00012499999999999976
1142,0.41326677799224854,0.5057079195976257,0.9,0.81,0.00012499999999999976
1143,0.41326671838760376,0.5057075619697571,0.9,0.81,0.00012499999999999976
1144,0.41326674818992615,0.5057082176208496,0.9,0.81,0.00012499999999999976
1145,0.41326671838760376,0.5057079195976257,0.9,0.81,0.00012499999999999976
1146,0.41326671838760376,0.5057080984115601,0.9,0.81,0.00012499999999999976
1147,0.41326674818992615,0.5057079195976257,0.9,0.81,0.00012499999999999976
1148,0.41326668858528137,0.505708634853363,0.9,0.81,0.00012499999999999976
1149,0.41326668858528137,0.5057084560394287,0.9,0.81,0.00012499999999999976
1150,0.41326674818992615,0.5057090520858765,0.9,0.81,0.00012499999999999976
1151,0.41326668858528137,0.5057091116905212,0.9,0.81,0.00012499999999999976
1152,0.41326668858528137,0.5057094693183899,0.9,0.81,0.00012499999999999976
1153,0.41326671838760376,0.505709707736969,0.9,0.81,0.00012499999999999976
1154,0.41326668858528137,0.5057100653648376,0.9,0.81,0.00012499999999999976
1155,0.41326671838760376,0.5057095885276794,0.9,0.81,0.00012499999999999976
1156,0.41326674818992615,0.5057098269462585,0.9,0.81,0.00012499999999999976
1157,0.41326671838760376,0.5057093501091003,0.9,0.81,0.00012499999999999976
1158,0.41326671838760376,0.5057098269462585,0.9,0.81,0.00012499999999999976
1159,0.4132666289806366,0.5057092905044556,0.9,0.81,0.00012499999999999976
1160,0.41326668858528137,0.5057094693183899,0.9,0.81,0.00012499999999999976
1161,0.41326668858528137,0.5057103633880615,0.9,0.81,0.00012499999999999976
1162,0.41326671838760376,0.505710244178772,0.9,0.81,0.00012499999999999976
1163,0.41326668858528137,0.505710244178772,0.9,0.81,0.00012499999999999976
1164,0.4132666289806366,0.5057100057601929,0.9,0.81,0.00012499999999999976
1165,0.41326671838760376,0.5057098865509033,0.9,0.81,0.00012499999999999976
1166,0.41326668858528137,0.505710780620575,0.9,0.81,0.00012499999999999976
1167,0.41326671838760376,0.5057104229927063,0.9,0.81,0.00012499999999999976
1168,0.41326671838760376,0.50571209192276,0.9,0.81,0.00012499999999999976
1169,0.41326671838760376,0.5057113766670227,0.9,0.81,0.00012499999999999976
1170,0.41326668858528137,0.5057109594345093,0.9,0.81,0.00012499999999999976
1171,0.41326668858528137,0.5057110786437988,0.9,0.81,0.00012499999999999976
1172,0.41326671838760376,0.5057113170623779,0.9,0.81,0.00012499999999999976
1173,0.4132666289806366,0.5057122111320496,0.9,0.81,0.00012499999999999976
1174,0.41326668858528137,0.5057125687599182,0.9,0.81,0.00012499999999999976
1175,0.4132665991783142,0.5057128667831421,0.9,0.81,0.00012499999999999976
1176,0.41326671838760376,0.5057133436203003,0.9,0.81,0.00012499999999999976
1177,0.41326668858528137,0.5057129263877869,0.9,0.81,0.00012499999999999976
1178,0.4132666289806366,0.5057128071784973,0.9,0.81,0.00012499999999999976
1179,0.4132666289806366,0.5057124495506287,0.9,0.81,0.00012499999999999976
1180,0.4132666289806366,0.505712628364563,0.9,0.81,0.00012499999999999976
1181,0.4132665693759918,0.505713701248169,0.9,0.81,0.00012499999999999976
1182,0.4132665991783142,0.5057132244110107,0.9,0.81,0.00012499999999999976
1183,0.41326668858528137,0.505713164806366,0.9,0.81,0.00012499999999999976
1184,0.4132666289806366,0.5057138800621033,0.9,0.81,0.00012499999999999976
1185,0.41326668858528137,0.5057140588760376,0.9,0.81,0.00012499999999999976
1186,0.41326668858528137,0.5057142376899719,0.9,0.81,0.00012499999999999976
1187,0.4132665693759918,0.5057139992713928,0.9,0.81,0.00012499999999999976
1188,0.4132665991783142,0.5057144165039062,0.9,0.81,0.00012499999999999976
1189,0.4132665991783142,0.5057144165039062,0.9,0.81,0.00012499999999999976
1190,0.4132666289806366,0.5057151913642883,0.9,0.81,0.00012499999999999976
1191,0.4132665991783142,0.5057150721549988,0.9,0.81,0.00012499999999999976
1192,0.4132666289806366,0.5057145357131958,0.9,0.81,0.00012499999999999976
1193,0.4132665991783142,0.5057148337364197,0.9,0.81,0.00012499999999999976
1194,0.41326668858528137,0.5057151317596436,0.9,0.81,0.00012499999999999976
1195,0.4132665991783142,0.5057146549224854,0.9,0.81,0.00012499999999999976
1196,0.41326668858528137,0.5057152509689331,0.9,0.81,0.00012499999999999976
1197,0.4132666289806366,0.5057154297828674,0.9,0.81,0.00012499999999999976
1198,0.4132666289806366,0.5057151913642883,0.9,0.81,0.00012499999999999976
1199,0.41326668858528137,0.5057151913642883,0.9,0.81,0.00012499999999999976
1200,0.4132665693759918,0.5057154297828674,0.9,0.81,0.00012499999999999976
1201,0.4132665991783142,0.5057151913642883,0.9,0.81,0.00012499999999999976
1202,0.4132665991783142,0.5057151913642883,0.9,0.81,0.00012499999999999976
1203,0.4132666289806366,0.5057151317596436,0.9,0.81,0.00012499999999999976
1204,0.4132665991783142,0.5057147145271301,0.9,0.81,0.00012499999999999976
1205,0.4132665991783142,0.5057145953178406,0.9,0.81,0.00012499999999999976
1206,0.41326653957366943,0.5057146549224854,0.9,0.81,0.00012499999999999976
1207,0.4132665991783142,0.5057146549224854,0.9,0.81,0.00012499999999999976
1208,0.4132665693759918,0.5057147741317749,0.9,0.81,0.00012499999999999976
1209,0.41326653957366943,0.505714476108551,0.9,0.81,0.00012499999999999976
1210,0.4132666289806366,0.5057145953178406,0.9,0.81,0.00012499999999999976
1211,0.4132665693759918,0.5057153105735779,0.9,0.81,0.00012499999999999976
1212,0.4132665991783142,0.5057158470153809,0.9,0.81,0.00012499999999999976
1213,0.4132665693759918,0.5057156085968018,0.9,0.81,0.00012499999999999976
1214,0.4132665991783142,0.5057159662246704,0.9,0.81,0.00012499999999999976
1215,0.4132665991783142,0.5057165622711182,0.9,0.81,0.00012499999999999976
1216,0.4132665693759918,0.5057158470153809,0.9,0.81,0.00012499999999999976
1217,0.41326647996902466,0.5057170391082764,0.9,0.81,0.00012499999999999976
1218,0.4132665991783142,0.5057172179222107,0.9,0.81,0.00012499999999999976
1219,0.41326653957366943,0.5057174563407898,0.9,0.81,0.00012499999999999976
1220,0.4132665991783142,0.505717933177948,0.9,0.81,0.00012499999999999976
1221,0.4132665693759918,0.5057178139686584,0.9,0.81,0.00012499999999999976
1222,0.4132665693759918,0.5057181715965271,0.9,0.81,0.00012499999999999976
1223,0.4132665693759918,0.5057182908058167,0.9,0.81,0.00012499999999999976
1224,0.41326653957366943,0.5057182908058167,0.9,0.81,0.00012499999999999976
1225,0.4132665991783142,0.5057177543640137,0.9,0.81,0.00012499999999999976
1226,0.4132665693759918,0.5057176947593689,0.9,0.81,0.00012499999999999976
1227,0.41326653957366943,0.5057177543640137,0.9,0.81,0.0001
1228,0.4132665693759918,0.5057177543640137,0.9,0.81,0.0001
1229,0.4132665693759918,0.5057182312011719,0.9,0.81,0.0001
1230,0.41326653957366943,0.5057184100151062,0.9,0.81,0.0001
1231,0.4132665693759918,0.5057188868522644,0.9,0.81,0.0001
1232,0.41326653957366943,0.5057187080383301,0.9,0.81,0.0001
1233,0.41326653957366943,0.5057188272476196,0.9,0.81,0.0001
1234,0.4132665693759918,0.5057194828987122,0.9,0.81,0.0001
1235,0.41326645016670227,0.505719780921936,0.9,0.81,0.0001
1236,0.41326653957366943,0.5057196021080017,0.9,0.81,0.0001
1237,0.41326645016670227,0.5057201385498047,0.9,0.81,0.0001
1238,0.41326653957366943,0.5057203769683838,0.9,0.81,0.0001
1239,0.41326647996902466,0.5057200789451599,0.9,0.81,0.0001
1240,0.4132665693759918,0.5057203769683838,0.9,0.81,0.0001
1241,0.4132665693759918,0.5057204365730286,0.9,0.81,0.0001
1242,0.41326647996902466,0.5057204961776733,0.9,0.81,0.0001
1243,0.41326647996902466,0.5057201981544495,0.9,0.81,0.0001
1244,0.41326647996902466,0.5057207942008972,0.9,0.81,0.0001
1245,0.41326647996902466,0.5057209730148315,0.9,0.81,0.0001
1246,0.4132665693759918,0.5057215094566345,0.9,0.81,0.0001
1247,0.41326653957366943,0.5057209730148315,0.9,0.81,0.0001
1248,0.41326645016670227,0.5057212114334106,0.9,0.81,0.0001
1249,0.41326645016670227,0.5057214498519897,0.9,0.81,0.0001
1250,0.41326647996902466,0.5057209730148315,0.9,0.81,0.0001
1251,0.41326647996902466,0.5057206749916077,0.9,0.81,0.0001
1252,0.41326647996902466,0.505720317363739,0.9,0.81,0.0001
1253,0.4132665991783142,0.5057209134101868,0.9,0.81,0.0001
1254,0.41326647996902466,0.505720853805542,0.9,0.81,0.0001
1255,0.41326647996902466,0.5057209134101868,0.9,0.81,0.0001
1256,0.41326647996902466,0.5057212710380554,0.9,0.81,0.0001
1257,0.41326653957366943,0.5057213306427002,0.9,0.81,0.0001
1258,0.41326653957366943,0.5057215094566345,0.9,0.81,0.0001
1259,0.41326645016670227,0.505721390247345,0.9,0.81,0.0001
1260,0.4132664203643799,0.5057218670845032,0.9,0.81,0.0001
1261,0.41326647996902466,0.5057220458984375,0.9,0.81,0.0001
1262,0.4132665693759918,0.5057225227355957,0.9,0.81,0.0001
1263,0.4132664203643799,0.5057228207588196,0.9,0.81,0.0001
1264,0.41326653957366943,0.5057227611541748,0.9,0.81,0.0001
1265,0.41326647996902466,0.5057228207588196,0.9,0.81,0.0001
1266,0.41326647996902466,0.5057229399681091,0.9,0.81,0.0001
1267,0.41326647996902466,0.5057224631309509,0.9,0.81,0.0001
1268,0.41326645016670227,0.5057222843170166,0.9,0.81,0.0001
1269,0.4132664203643799,0.505721926689148,0.9,0.81,0.0001
1270,0.41326645016670227,0.5057218670845032,0.9,0.81,0.0001
1271,0.4132664203643799,0.505722165107727,0.9,0.81,0.0001
1272,0.4132664203643799,0.5057222247123718,0.9,0.81,0.0001
1273,0.4132664203643799,0.5057226419448853,0.9,0.81,0.0001
1274,0.4132663607597351,0.5057228207588196,0.9,0.81,0.0001
1275,0.41326645016670227,0.5057230591773987,0.9,0.81,0.0001
1276,0.4132663607597351,0.5057230591773987,0.9,0.81,0.0001
1277,0.41326647996902466,0.5057236552238464,0.9,0.81,0.0001
1278,0.41326645016670227,0.5057237148284912,0.9,0.81,0.0001
1279,0.4132664203643799,0.505724310874939,0.9,0.81,0.0001
1280,0.41326645016670227,0.5057253241539001,0.9,0.81,0.0001
1281,0.41326645016670227,0.5057254433631897,0.9,0.81,0.0001
1282,0.4132663607597351,0.5057255029678345,0.9,0.81,0.0001
1283,0.41326645016670227,0.5057255625724792,0.9,0.81,0.0001
1284,0.4132663607597351,0.505725085735321,0.9,0.81,0.0001
1285,0.4132664203643799,0.505725085735321,0.9,0.81,0.0001
1286,0.41326645016670227,0.5057255029678345,0.9,0.81,0.0001
1287,0.4132663607597351,0.5057256817817688,0.9,0.81,0.0001
1288,0.4132664203643799,0.5057253837585449,0.9,0.81,0.0001
1289,0.4132664203643799,0.5057253837585449,0.9,0.81,0.0001
1290,0.41326645016670227,0.5057251453399658,0.9,0.81,0.0001
1291,0.4132664203643799,0.5057253837585449,0.9,0.81,0.0001
1292,0.4132663309574127,0.5057254433631897,0.9,0.81,0.0001
1293,0.41326645016670227,0.5057258009910583,0.9,0.81,0.0001
1294,0.4132664203643799,0.5057258009910583,0.9,0.81,0.0001
1295,0.41326645016670227,0.5057258605957031,0.9,0.81,0.0001
1296,0.41326645016670227,0.5057255625724792,0.9,0.81,0.0001
1297,0.4132663309574127,0.5057259202003479,0.9,0.81,0.0001
1298,0.4132664203643799,0.5057260990142822,0.9,0.81,0.0001
1299,0.4132663607597351,0.5057264566421509,0.9,0.81,0.0001
1300,0.4132664203643799,0.5057259202003479,0.9,0.81,0.0001
1301,0.4132664203643799,0.5057257413864136,0.9,0.81,0.0001
1302,0.41326645016670227,0.5057256817817688,0.9,0.81,0.0001
1303,0.4132664203643799,0.5057258009910583,0.9,0.81,0.0001
1304,0.41326645016670227,0.5057259202003479,0.9,0.81,0.0001
1305,0.4132664203643799,0.5057253837585449,0.9,0.81,0.0001
1306,0.4132663607597351,0.5057255029678345,0.9,0.81,0.0001
1307,0.4132664203643799,0.5057255029678345,0.9,0.81,0.0001
1308,0.41326645016670227,0.5057257413864136,0.9,0.81,0.0001
1309,0.4132663309574127,0.5057262182235718,0.9,0.81,0.0001
1310,0.4132663607597351,0.5057260394096375,0.9,0.81,0.0001
1311,0.4132663607597351,0.5057262182235718,0.9,0.81,0.0001
1312,0.4132663309574127,0.5057262182235718,0.9,0.81,0.0001
1313,0.4132663607597351,0.5057269930839539,0.9,0.81,0.0001
1314,0.4132663607597351,0.5057270526885986,0.9,0.81,0.0001
1315,0.4132663607597351,0.5057272911071777,0.9,0.81,0.0001
1316,0.4132663309574127,0.5057271718978882,0.9,0.81,0.0001
1317,0.4132663607597351,0.5057275891304016,0.9,0.81,0.0001
1318,0.41326645016670227,0.5057278871536255,0.9,0.81,0.0001
1319,0.4132664203643799,0.5057278275489807,0.9,0.81,0.0001
1320,0.4132663607597351,0.5057280659675598,0.9,0.81,0.0001
1321,0.41326630115509033,0.5057283639907837,0.9,0.81,0.0001
1322,0.41326630115509033,0.5057287812232971,0.9,0.81,0.0001
1323,0.41326627135276794,0.505728542804718,0.9,0.81,0.0001
1324,0.4132664203643799,0.505728006362915,0.9,0.81,0.0001
1325,0.41326630115509033,0.5057284235954285,0.9,0.81,0.0001
1326,0.4132663607597351,0.5057287216186523,0.9,0.81,0.0001
1327,0.4132663309574127,0.5057282447814941,0.9,0.81,0.0001
1328,0.4132663309574127,0.5057290196418762,0.9,0.81,0.0001
1329,0.4132663309574127,0.5057289600372314,0.9,0.81,0.0001
1330,0.41326630115509033,0.5057286024093628,0.9,0.81,0.0001
1331,0.41326627135276794,0.505728542804718,0.9,0.81,0.0001
1332,0.4132663607597351,0.5057287812232971,0.9,0.81,0.0001
1333,0.41326630115509033,0.5057293176651001,0.9,0.81,0.0001
1334,0.4132663607597351,0.5057294964790344,0.9,0.81,0.0001
1335,0.41326630115509033,0.505729615688324,0.9,0.81,0.0001
1336,0.41326630115509033,0.5057294964790344,0.9,0.81,0.0001
1337,0.41326627135276794,0.5057294964790344,0.9,0.81,0.0001
1338,0.4132663309574127,0.5057294368743896,0.9,0.81,0.0001
1339,0.41326630115509033,0.505729615688324,0.9,0.81,0.0001
1340,0.41326630115509033,0.5057300329208374,0.9,0.81,0.0001
1341,0.41326630115509033,0.5057300329208374,0.9,0.81,0.0001
1342,0.41326621174812317,0.5057299733161926,0.9,0.81,0.0001
1343,0.4132663309574127,0.5057296752929688,0.9,0.81,0.0001
1344,0.41326627135276794,0.5057298541069031,0.9,0.81,0.0001
1345,0.4132663309574127,0.505729615688324,0.9,0.81,0.0001
1346,0.4132663309574127,0.5057293772697449,0.9,0.81,0.0001
1347,0.41326630115509033,0.5057302117347717,0.9,0.81,0.0001
1348,0.4132663607597351,0.505730152130127,0.9,0.81,0.0001
1349,0.4132663309574127,0.5057300925254822,0.9,0.81,0.0001
1350,0.4132663309574127,0.5057302713394165,0.9,0.81,0.0001
1351,0.41326630115509033,0.5057306289672852,0.9,0.81,0.0001
1352,0.4132663309574127,0.5057305693626404,0.9,0.81,0.0001
1353,0.4132663309574127,0.5057315230369568,0.9,0.81,0.0001
1354,0.41326630115509033,0.5057310461997986,0.9,0.81,0.0001
1355,0.4132661819458008,0.5057312250137329,0.9,0.81,0.0001
1356,0.41326630115509033,0.5057309865951538,0.9,0.81,0.0001
1357,0.41326630115509033,0.5057312250137329,0.9,0.81,0.0001
1358,0.41326630115509033,0.5057315230369568,0.9,0.81,0.0001
1359,0.4132663309574127,0.5057308673858643,0.9,0.81,0.0001
1360,0.4132663309574127,0.5057308673858643,0.9,0.81,0.0001
1361,0.41326627135276794,0.5057305693626404,0.9,0.81,0.0001
1362,0.41326627135276794,0.5057311058044434,0.9,0.81,0.0001
1363,0.41326627135276794,0.5057314038276672,0.9,0.81,0.0001
1364,0.41326630115509033,0.505731463432312,0.9,0.81,0.0001
1365,0.41326627135276794,0.5057317018508911,0.9,0.81,0.0001
1366,0.41326627135276794,0.5057315826416016,0.9,0.81,0.0001
1367,0.41326621174812317,0.5057315230369568,0.9,0.81,0.0001
1368,0.41326621174812317,0.5057322978973389,0.9,0.81,0.0001
1369,0.41326627135276794,0.5057327151298523,0.9,0.81,0.0001
1370,0.41326621174812317,0.505733072757721,0.9,0.81,0.0001
1371,0.4132663309574127,0.5057330131530762,0.9,0.81,0.0001
1372,0.41326627135276794,0.5057327747344971,0.9,0.81,0.0001
1373,0.41326627135276794,0.5057335495948792,0.9,0.81,0.0001
1374,0.41326627135276794,0.505734384059906,0.9,0.81,0.0001
1375,0.41326621174812317,0.505734920501709,0.9,0.81,0.0001
1376,0.41326630115509033,0.5057346820831299,0.9,0.81,0.0001
1377,0.4132663309574127,0.5057349801063538,0.9,0.81,0.0001
1378,0.41326630115509033,0.5057347416877747,0.9,0.81,0.0001
1379,0.41326627135276794,0.5057352185249329,0.9,0.81,0.0001
1380,0.41326630115509033,0.5057353973388672,0.9,0.81,0.0001
1381,0.41326627135276794,0.5057357549667358,0.9,0.81,0.0001
1382,0.4132663309574127,0.5057356953620911,0.9,0.81,0.0001
1383,0.41326630115509033,0.5057355761528015,0.9,0.81,0.0001
1384,0.41326627135276794,0.5057355761528015,0.9,0.81,0.0001
1385,0.4132661819458008,0.5057355165481567,0.9,0.81,0.0001
1386,0.41326630115509033,0.5057359337806702,0.9,0.81,0.0001
1387,0.4132661819458008,0.5057355761528015,0.9,0.81,0.0001
1388,0.4132661819458008,0.5057353377342224,0.9,0.81,0.0001
1389,0.4132661819458008,0.5057352185249329,0.9,0.81,0.0001
1390,0.41326621174812317,0.5057350397109985,0.9,0.81,0.0001
1391,0.41326621174812317,0.5057355761528015,0.9,0.81,0.0001
1392,0.4132661819458008,0.5057358741760254,0.9,0.81,0.0001
1393,0.41326621174812317,0.5057355165481567,0.9,0.81,0.0001
1394,0.4132661819458008,0.5057352781295776,0.9,0.81,0.0001
1395,0.41326621174812317,0.5057356357574463,0.9,0.81,0.0001
1396,0.41326627135276794,0.5057357549667358,0.9,0.81,0.0001
1397,0.41326621174812317,0.5057355761528015,0.9,0.81,0.0001
1398,0.41326621174812317,0.5057361125946045,0.9,0.81,0.0001
1399,0.41326627135276794,0.5057360529899597,0.9,0.81,0.0001
1400,0.41326621174812317,0.5057364106178284,0.9,0.81,0.0001
1401,0.41326621174812317,0.5057367086410522,0.9,0.81,0.0001
1402,0.4132661819458008,0.5057364106178284,0.9,0.81,0.0001
1403,0.41326621174812317,0.5057363510131836,0.9,0.81,0.0001
1404,0.4132661819458008,0.5057363510131836,0.9,0.81,0.0001
1405,0.4132661819458008,0.505736768245697,0.9,0.81,0.0001
1406,0.41326627135276794,0.5057366490364075,0.9,0.81,0.0001
1407,0.41326627135276794,0.5057363510131836,0.9,0.81,0.0001
1408,0.41326627135276794,0.5057372450828552,0.9,0.81,0.0001
1409,0.41326621174812317,0.5057370066642761,0.9,0.81,0.0001
1410,0.41326621174812317,0.5057371854782104,0.9,0.81,0.0001
1411,0.4132661819458008,0.5057367086410522,0.9,0.81,0.0001
1412,0.4132661521434784,0.5057370662689209,0.9,0.81,0.0001
1413,0.41326621174812317,0.5057368278503418,0.9,0.81,0.0001
1414,0.4132661819458008,0.5057370066642761,0.9,0.81,0.0001
1415,0.4132661819458008,0.5057380199432373,0.9,0.81,0.0001
1416,0.4132661819458008,0.5057384967803955,0.9,0.81,0.0001
1417,0.41326621174812317,0.5057392120361328,0.9,0.81,0.0001
1418,0.4132661819458008,0.5057393908500671,0.9,0.81,0.0001
1419,0.4132661819458008,0.5057393312454224,0.9,0.81,0.0001
1420,0.41326621174812317,0.5057395100593567,0.9,0.81,0.0001
1421,0.4132661819458008,0.5057399868965149,0.9,0.81,0.0001
1422,0.4132661819458008,0.5057403445243835,0.9,0.81,0.0001
1423,0.4132661521434784,0.5057405233383179,0.9,0.81,0.0001
1424,0.4132661819458008,0.5057407021522522,0.9,0.81,0.0001
1425,0.4132661521434784,0.505740761756897,0.9,0.81,0.0001
1426,0.4132660925388336,0.5057410001754761,0.9,0.81,0.0001
1427,0.41326621174812317,0.5057405829429626,0.9,0.81,0.0001
1428,0.4132660925388336,0.5057408809661865,0.9,0.81,0.0001
1429,0.4132660925388336,0.5057397484779358,0.9,0.81,0.0001
1430,0.4132661521434784,0.5057397484779358,0.9,0.81,0.0001
1431,0.4132660925388336,0.5057400465011597,0.9,0.81,0.0001
1432,0.4132660925388336,0.5057399272918701,0.9,0.81,0.0001
1433,0.4132660925388336,0.5057398080825806,0.9,0.81,0.0001
1434,0.41326621174812317,0.5057402849197388,0.9,0.81,0.0001
1435,0.4132660925388336,0.5057392716407776,0.9,0.81,0.0001
1436,0.4132661521434784,0.5057390332221985,0.9,0.81,0.0001
1437,0.4132661819458008,0.5057390332221985,0.9,0.81,0.0001
1438,0.4132661819458008,0.5057392716407776,0.9,0.81,0.0001
1439,0.41326606273651123,0.505739688873291,0.9,0.81,0.0001
1440,0.4132661819458008,0.5057398080825806,0.9,0.81,0.0001
1441,0.4132661819458008,0.5057399272918701,0.9,0.81,0.0001
1442,0.4132661521434784,0.5057405233383179,0.9,0.81,0.0001
1443,0.4132661819458008,0.505740761756897,0.9,0.81,0.0001
1444,0.41326606273651123,0.5057405233383179,0.9,0.81,0.0001
1445,0.4132660925388336,0.505740761756897,0.9,0.81,0.0001
1446,0.4132661819458008,0.5057414174079895,0.9,0.81,0.0001
1447,0.4132661521434784,0.5057412981987,0.9,0.81,0.0001
1448,0.4132661521434784,0.5057414174079895,0.9,0.81,0.0001
1449,0.4132661521434784,0.5057414770126343,0.9,0.81,0.0001
1450,0.41326606273651123,0.5057411789894104,0.9,0.81,0.0001
1451,0.4132660925388336,0.5057412981987,0.9,0.81,0.0001
1452,0.4132661521434784,0.5057422518730164,0.9,0.81,0.0001
1453,0.4132660925388336,0.5057427287101746,0.9,0.81,0.0001
1454,0.4132661521434784,0.5057427883148193,0.9,0.81,0.0001
1455,0.4132660925388336,0.5057435035705566,0.9,0.81,0.0001
1456,0.41326606273651123,0.5057436227798462,0.9,0.81,0.0001
1457,0.41326603293418884,0.5057439208030701,0.9,0.81,0.0001
1458,0.4132661819458008,0.5057435035705566,0.9,0.81,0.0001
1459,0.4132660925388336,0.5057435035705566,0.9,0.81,0.0001
1460,0.41326606273651123,0.5057437419891357,0.9,0.81,0.0001
1461,0.4132661521434784,0.5057442784309387,0.9,0.81,0.0001
1462,0.4132661521434784,0.5057448744773865,0.9,0.81,0.0001
1463,0.41326606273651123,0.5057442784309387,0.9,0.81,0.0001
1464,0.4132660925388336,0.5057439208030701,0.9,0.81,0.0001
1465,0.4132660925388336,0.5057437419891357,0.9,0.81,0.0001
1466,0.4132660925388336,0.5057441592216492,0.9,0.81,0.0001
1467,0.4132661521434784,0.5057448744773865,0.9,0.81,0.0001
1468,0.4132660925388336,0.505744218826294,0.9,0.81,0.0001
1469,0.4132660925388336,0.5057441592216492,0.9,0.81,0.0001
1470,0.41326606273651123,0.505744457244873,0.9,0.81,0.0001
1471,0.41326606273651123,0.5057441592216492,0.9,0.81,0.0001
1472,0.4132660925388336,0.5057441592216492,0.9,0.81,0.0001
1473,0.4132661521434784,0.505744218826294,0.9,0.81,0.0001
1474,0.4132660925388336,0.5057438015937805,0.9,0.81,0.0001
1475,0.41326606273651123,0.5057443380355835,0.9,0.81,0.0001
1476,0.4132660925388336,0.5057454109191895,0.9,0.81,0.0001
1477,0.41326606273651123,0.5057454109191895,0.9,0.81,0.0001
1478,0.41326603293418884,0.5057457089424133,0.9,0.81,0.0001
1479,0.41326603293418884,0.5057462453842163,0.9,0.81,0.0001
1480,0.4132660925388336,0.5057463645935059,0.9,0.81,0.0001
1481,0.41326603293418884,0.5057462453842163,0.9,0.81,0.0001
1482,0.4132660925388336,0.505746066570282,0.9,0.81,0.0001
1483,0.41326606273651123,0.5057464241981506,0.9,0.81,0.0001
1484,0.41326606273651123,0.505746603012085,0.9,0.81,0.0001
1485,0.41326606273651123,0.5057462453842163,0.9,0.81,0.0001
1486,0.41326606273651123,0.5057463049888611,0.9,0.81,0.0001
1487,0.41326606273651123,0.5057463049888611,0.9,0.81,0.0001
1488,0.41326606273651123,0.5057463645935059,0.9,0.81,0.0001
1489,0.41326606273651123,0.5057464838027954,0.9,0.81,0.0001
1490,0.41326606273651123,0.5057470798492432,0.9,0.81,0.0001
1491,0.41326603293418884,0.5057471990585327,0.9,0.81,0.0001
1492,0.41326606273651123,0.5057467818260193,0.9,0.81,0.0001
1493,0.41326600313186646,0.5057470202445984,0.9,0.81,0.0001
1494,0.41326603293418884,0.5057474374771118,0.9,0.81,0.0001
1495,0.41326606273651123,0.5057477355003357,0.9,0.81,0.0001
1496,0.41326606273651123,0.5057483315467834,0.9,0.81,0.0001
1497,0.41326600313186646,0.5057486891746521,0.9,0.81,0.0001
1498,0.41326606273651123,0.5057492256164551,0.9,0.81,0.0001
1499,0.41326603293418884,0.5057498812675476,0.9,0.81,0.0001
1500,0.41326603293418884,0.5057498216629028,0.9,0.81,0.0001
1501,0.41326606273651123,0.5057493448257446,0.9,0.81,0.0001
1502,0.41326603293418884,0.5057498216629028,0.9,0.81,0.0001
1503,0.41326606273651123,0.5057501792907715,0.9,0.81,0.0001
1504,0.41326603293418884,0.505750298500061,0.9,0.81,0.0001
1505,0.41326606273651123,0.5057499408721924,0.9,0.81,0.0001
1506,0.41326600313186646,0.5057500004768372,0.9,0.81,0.0001
1507,0.41326600313186646,0.5057497024536133,0.9,0.81,0.0001
1508,0.41326600313186646,0.505749523639679,0.9,0.81,0.0001
1509,0.41326606273651123,0.5057504177093506,0.9,0.81,0.0001
1510,0.4132659435272217,0.505750834941864,0.9,0.81,0.0001
1511,0.41326603293418884,0.5057515501976013,0.9,0.81,0.0001
1512,0.4132658839225769,0.505751371383667,0.9,0.81,0.0001
1513,0.41326606273651123,0.5057511925697327,0.9,0.81,0.0001
1514,0.41326600313186646,0.5057519674301147,0.9,0.81,0.0001
1515,0.4132660925388336,0.5057516694068909,0.9,0.81,0.0001
1516,0.41326603293418884,0.5057514309883118,0.9,0.81,0.0001
1517,0.41326606273651123,0.505751371383667,0.9,0.81,0.0001
1518,0.4132659435272217,0.5057515501976013,0.9,0.81,0.0001
1519,0.41326600313186646,0.5057514309883118,0.9,0.81,0.0001
1520,0.41326603293418884,0.5057514905929565,0.9,0.81,0.0001
1521,0.41326606273651123,0.5057514905929565,0.9,0.81,0.0001
1522,0.41326600313186646,0.5057519674301147,0.9,0.81,0.0001
1523,0.41326600313186646,0.5057516694068909,0.9,0.81,0.0001
1524,0.41326603293418884,0.5057517290115356,0.9,0.81,0.0001
1525,0.4132659435272217,0.5057517290115356,0.9,0.81,0.0001
1526,0.41326600313186646,0.5057517886161804,0.9,0.81,0.0001
1527,0.4132659435272217,0.5057522058486938,0.9,0.81,0.0001
1528,0.41326600313186646,0.5057517886161804,0.9,0.81,0.0001
1529,0.41326603293418884,0.5057522058486938,0.9,0.81,0.0001
1530,0.41326603293418884,0.5057525038719177,0.9,0.81,0.0001
1531,0.41326603293418884,0.5057522654533386,0.9,0.81,0.0001
1532,0.41326603293418884,0.5057520866394043,0.9,0.81,0.0001
1533,0.4132658839225769,0.5057520866394043,0.9,0.81,0.0001
1534,0.4132659435272217,0.5057517886161804,0.9,0.81,0.0001
1535,0.4132659435272217,0.505752444267273,0.9,0.81,0.0001
1536,0.4132659435272217,0.5057530403137207,0.9,0.81,0.0001
1537,0.4132659137248993,0.5057538151741028,0.9,0.81,0.0001
1538,0.41326600313186646,0.5057534575462341,0.9,0.81,0.0001
1539,0.4132659435272217,0.505754292011261,0.9,0.81,0.0001
1540,0.4132659137248993,0.505754292011261,0.9,0.81,0.0001
1541,0.4132659435272217,0.5057550668716431,0.9,0.81,0.0001
1542,0.4132659137248993,0.5057551860809326,0.9,0.81,0.0001
1543,0.4132659435272217,0.5057548880577087,0.9,0.81,0.0001
1544,0.4132659435272217,0.5057554841041565,0.9,0.81,0.0001
1545,0.4132659435272217,0.5057553648948669,0.9,0.81,0.0001
1546,0.4132659435272217,0.5057553648948669,0.9,0.81,0.0001
1547,0.4132659435272217,0.5057550072669983,0.9,0.81,0.0001
1548,0.4132659137248993,0.505754828453064,0.9,0.81,0.0001
1549,0.4132659137248993,0.5057547688484192,0.9,0.81,0.0001
1550,0.4132659435272217,0.5057550668716431,0.9,0.81,0.0001
1551,0.4132659137248993,0.5057553052902222,0.9,0.81,0.0001
1552,0.4132658839225769,0.5057559013366699,0.9,0.81,0.0001
1553,0.4132659435272217,0.5057560801506042,0.9,0.81,0.0001
1554,0.41326603293418884,0.5057561993598938,0.9,0.81,0.0001
1555,0.41326600313186646,0.5057561993598938,0.9,0.81,0.0001
1556,0.4132659137248993,0.5057561993598938,0.9,0.81,0.0001
1557,0.4132659435272217,0.5057569146156311,0.9,0.81,0.0001
1558,0.41326600313186646,0.5057572722434998,0.9,0.81,0.0001
1559,0.4132659137248993,0.5057570934295654,0.9,0.81,0.0001
1560,0.4132659435272217,0.5057565569877625,0.9,0.81,0.0001
1561,0.4132658839225769,0.5057569742202759,0.9,0.81,0.0001
1562,0.4132658839225769,0.5057566165924072,0.9,0.81,0.0001
1563,0.41326600313186646,0.5057575106620789,0.9,0.81,0.0001
1564,0.4132659435272217,0.5057570338249207,0.9,0.81,0.0001
1565,0.4132659435272217,0.5057575702667236,0.9,0.81,0.0001
1566,0.4132659137248993,0.5057574510574341,0.9,0.81,0.0001
1567,0.4132659137248993,0.5057576894760132,0.9,0.81,0.0001
1568,0.4132659435272217,0.5057583451271057,0.9,0.81,0.0001
1569,0.4132659137248993,0.5057582855224609,0.9,0.81,0.0001
1570,0.4132659137248993,0.5057583451271057,0.9,0.81,0.0001
1571,0.4132659137248993,0.5057575106620789,0.9,0.81,0.0001
1572,0.4132659435272217,0.5057576298713684,0.9,0.81,0.0001
1573,0.4132659137248993,0.5057582855224609,0.9,0.81,0.0001
1574,0.4132659137248993,0.5057582855224609,0.9,0.81,0.0001
1575,0.41326600313186646,0.5057580471038818,0.9,0.81,0.0001
1576,0.4132658839225769,0.5057578086853027,0.9,0.81,0.0001
1577,0.41326582431793213,0.5057586431503296,0.9,0.81,0.0001
1578,0.4132659137248993,0.5057584643363953,0.9,0.81,0.0001
1579,0.4132659137248993,0.5057588815689087,0.9,0.81,0.0001
1580,0.4132658839225769,0.5057591795921326,0.9,0.81,0.0001
1581,0.4132659137248993,0.5057590007781982,0.9,0.81,0.0001
1582,0.4132659435272217,0.5057590007781982,0.9,0.81,0.0001
1583,0.4132659137248993,0.5057592391967773,0.9,0.81,0.0001
1584,0.4132659435272217,0.5057591199874878,0.9,0.81,0.0001
1585,0.4132658839225769,0.505759596824646,0.9,0.81,0.0001
1586,0.4132658839225769,0.5057598948478699,0.9,0.81,0.0001
1587,0.4132659137248993,0.5057600140571594,0.9,0.81,0.0001
1588,0.41326582431793213,0.5057609677314758,0.9,0.81,0.0001
1589,0.4132658839225769,0.5057603120803833,0.9,0.81,0.0001
1590,0.4132659137248993,0.5057598352432251,0.9,0.81,0.0001
1591,0.4132659137248993,0.5057602524757385,0.9,0.81,0.0001
1592,0.41326582431793213,0.505760908126831,0.9,0.81,0.0001
1593,0.41326579451560974,0.5057613849639893,0.9,0.81,0.0001
1594,0.41326582431793213,0.5057612061500549,0.9,0.81,0.0001
1595,0.41326582431793213,0.505760908126831,0.9,0.81,0.0001
1596,0.41326576471328735,0.5057612061500549,0.9,0.81,0.0001
1597,0.4132659137248993,0.505761444568634,0.9,0.81,0.0001
1598,0.41326579451560974,0.5057610869407654,0.9,0.81,0.0001
1599,0.41326579451560974,0.505760669708252,0.9,0.81,0.0001
1600,0.4132658839225769,0.505760908126831,0.9,0.81,0.0001
1601,0.41326582431793213,0.5057611465454102,0.9,0.81,0.0001
1602,0.41326573491096497,0.5057613849639893,0.9,0.81,0.0001
1603,0.4132659137248993,0.5057616233825684,0.9,0.81,0.0001
1604,0.41326582431793213,0.5057624578475952,0.9,0.81,0.0001
1605,0.41326579451560974,0.5057634115219116,0.9,0.81,0.0001
1606,0.4132659137248993,0.505763828754425,0.9,0.81,0.0001
1607,0.4132658839225769,0.505763590335846,0.9,0.81,0.0001
1608,0.41326582431793213,0.505764365196228,0.9,0.81,0.0001
1609,0.41326582431793213,0.505763828754425,0.9,0.81,0.0001
1610,0.41326582431793213,0.5057635307312012,0.9,0.81,0.0001
1611,0.4132658839225769,0.5057637691497803,0.9,0.81,0.0001
1612,0.4132658839225769,0.5057641863822937,0.9,0.81,0.0001
1613,0.4132658839225769,0.5057641267776489,0.9,0.81,0.0001
1614,0.41326576471328735,0.5057643055915833,0.9,0.81,0.0001
1615,0.41326576471328735,0.5057642459869385,0.9,0.81,0.0001
1616,0.41326579451560974,0.5057644844055176,0.9,0.81,0.0001
1617,0.4132658839225769,0.5057650804519653,0.9,0.81,0.0001
1618,0.41326576471328735,0.5057650208473206,0.9,0.81,0.0001
1619,0.41326582431793213,0.5057647824287415,0.9,0.81,0.0001
1620,0.4132658839225769,0.505764365196228,0.9,0.81,0.0001
1621,0.41326576471328735,0.5057636499404907,0.9,0.81,0.0001
1622,0.41326579451560974,0.5057634711265564,0.9,0.81,0.0001
1623,0.41326582431793213,0.5057634711265564,0.9,0.81,0.0001
1624,0.41326576471328735,0.5057647824287415,0.9,0.81,0.0001
1625,0.41326582431793213,0.505764901638031,0.9,0.81,0.0001
1626,0.41326579451560974,0.5057655572891235,0.9,0.81,0.0001
1627,0.41326579451560974,0.5057656764984131,0.9,0.81,0.0001
1628,0.41326576471328735,0.505765438079834,0.9,0.81,0.0001
1629,0.41326576471328735,0.5057656168937683,0.9,0.81,0.0001
1630,0.41326582431793213,0.5057656764984131,0.9,0.81,0.0001
1631,0.41326579451560974,0.5057656168937683,0.9,0.81,0.0001
1632,0.41326582431793213,0.5057664513587952,0.9,0.81,0.0001
1633,0.4132658839225769,0.5057660937309265,0.9,0.81,0.0001
1634,0.41326576471328735,0.505765974521637,0.9,0.81,0.0001
1635,0.41326582431793213,0.5057661533355713,0.9,0.81,0.0001
1636,0.4132656753063202,0.5057670474052429,0.9,0.81,0.0001
1637,0.41326579451560974,0.5057668089866638,0.9,0.81,0.0001
1638,0.41326582431793213,0.5057668089866638,0.9,0.81,0.0001
1639,0.41326579451560974,0.5057675838470459,0.9,0.81,0.0001
1640,0.41326579451560974,0.5057677030563354,0.9,0.81,0.0001
1641,0.41326579451560974,0.5057677626609802,0.9,0.81,0.0001
1642,0.4132659137248993,0.5057676434516907,0.9,0.81,0.0001
1643,0.41326582431793213,0.5057674646377563,0.9,0.81,0.0001
1644,0.41326573491096497,0.5057675838470459,0.9,0.81,0.0001
1645,0.41326579451560974,0.5057680010795593,0.9,0.81,0.0001
1646,0.41326582431793213,0.5057681798934937,0.9,0.81,0.0001
1647,0.41326579451560974,0.5057680010795593,0.9,0.81,0.0001
1648,0.41326576471328735,0.5057675242424011,0.9,0.81,0.0001
1649,0.41326579451560974,0.5057674646377563,0.9,0.81,0.0001
1650,0.41326579451560974,0.5057677626609802,0.9,0.81,0.0001
1651,0.41326576471328735,0.5057680606842041,0.9,0.81,0.0001
1652,0.41326573491096497,0.5057690739631653,0.9,0.81,0.0001
1653,0.41326573491096497,0.5057694315910339,0.9,0.81,0.0001
1654,0.41326576471328735,0.5057696104049683,0.9,0.81,0.0001
1655,0.41326573491096497,0.5057696104049683,0.9,0.81,0.0001
1656,0.41326573491096497,0.5057697296142578,0.9,0.81,0.0001
1657,0.41326576471328735,0.505769670009613,0.9,0.81,0.0001
1658,0.41326576471328735,0.5057693719863892,0.9,0.81,0.0001
1659,0.41326573491096497,0.5057696104049683,0.9,0.81,0.0001
1660,0.41326576471328735,0.5057698488235474,0.9,0.81,0.0001
1661,0.41326573491096497,0.5057704448699951,0.9,0.81,0.0001
1662,0.41326579451560974,0.5057703852653503,0.9,0.81,0.0001
1663,0.41326573491096497,0.5057703852653503,0.9,0.81,0.0001
1664,0.41326573491096497,0.5057704448699951,0.9,0.81,0.0001
1665,0.41326576471328735,0.5057706236839294,0.9,0.81,0.0001
1666,0.41326573491096497,0.5057703852653503,0.9,0.81,0.0001
1667,0.41326573491096497,0.5057708024978638,0.9,0.81,0.0001
1668,0.41326576471328735,0.5057704448699951,0.9,0.81,0.0001
1669,0.41326573491096497,0.5057703852653503,0.9,0.81,0.0001
1670,0.4132656753063202,0.505770742893219,0.9,0.81,0.0001
1671,0.4132656753063202,0.5057708621025085,0.9,0.81,0.0001
1672,0.41326576471328735,0.505771279335022,0.9,0.81,0.0001
1673,0.4132656753063202,0.5057709217071533,0.9,0.81,0.0001
1674,0.41326579451560974,0.5057711601257324,0.9,0.81,0.0001
1675,0.41326579451560974,0.5057713389396667,0.9,0.81,0.0001
1676,0.4132656753063202,0.505772054195404,0.9,0.81,0.0001
1677,0.41326576471328735,0.5057716965675354,0.9,0.81,0.0001
1678,0.41326573491096497,0.5057714581489563,0.9,0.81,0.0001
1679,0.41326573491096497,0.5057715773582458,0.9,0.81,0.0001
1680,0.41326573491096497,0.5057721138000488,0.9,0.81,0.0001
1681,0.41326576471328735,0.5057722330093384,0.9,0.81,0.0001
1682,0.41326579451560974,0.5057726502418518,0.9,0.81,0.0001
1683,0.4132656753063202,0.5057727694511414,0.9,0.81,0.0001
1684,0.4132656753063202,0.5057726502418518,0.9,0.81,0.0001
1685,0.4132656753063202,0.5057729482650757,0.9,0.81,0.0001
1686,0.41326573491096497,0.5057728290557861,0.9,0.81,0.0001
1687,0.4132656455039978,0.5057733654975891,0.9,0.81,0.0001
1688,0.4132656455039978,0.5057734251022339,0.9,0.81,0.0001
1689,0.41326573491096497,0.5057739019393921,0.9,0.81,0.0001
1690,0.4132656753063202,0.5057737827301025,0.9,0.81,0.0001
1691,0.41326573491096497,0.5057733058929443,0.9,0.81,0.0001
1692,0.4132656455039978,0.5057742595672607,0.9,0.81,0.0001
1693,0.41326573491096497,0.5057741403579712,0.9,0.81,0.0001
1694,0.41326576471328735,0.5057741403579712,0.9,0.81,0.0001
1695,0.4132656753063202,0.5057748556137085,0.9,0.81,0.0001
1696,0.41326573491096497,0.5057746767997742,0.9,0.81,0.0001
1697,0.4132656753063202,0.505774199962616,0.9,0.81,0.0001
1698,0.4132656455039978,0.5057734847068787,0.9,0.81,0.0001
1699,0.4132656157016754,0.505773663520813,0.9,0.81,0.0001
1700,0.4132656753063202,0.5057734847068787,0.9,0.81,0.0001
1701,0.41326573491096497,0.5057744383811951,0.9,0.81,0.0001
1702,0.4132656753063202,0.5057752132415771,0.9,0.81,0.0001
1703,0.4132656157016754,0.5057758092880249,0.9,0.81,0.0001
1704,0.4132656455039978,0.5057756304740906,0.9,0.81,0.0001
1705,0.41326576471328735,0.5057754516601562,0.9,0.81,0.0001
1706,0.4132656157016754,0.5057753324508667,0.9,0.81,0.0001
1707,0.4132656753063202,0.5057765245437622,0.9,0.81,0.0001
1708,0.41326573491096497,0.5057759881019592,0.9,0.81,0.0001
1709,0.4132656753063202,0.5057758688926697,0.9,0.81,0.0001
1710,0.41326573491096497,0.5057761669158936,0.9,0.81,0.0001
1711,0.4132656753063202,0.505776584148407,0.9,0.81,0.0001
1712,0.4132656455039978,0.505776584148407,0.9,0.81,0.0001
1713,0.4132656157016754,0.5057762861251831,0.9,0.81,0.0001
1714,0.4132656455039978,0.5057762861251831,0.9,0.81,0.0001
1715,0.4132656455039978,0.5057772994041443,0.9,0.81,0.0001
1716,0.413265585899353,0.5057785511016846,0.9,0.81,0.0001
1717,0.4132656455039978,0.5057780742645264,0.9,0.81,0.0001
1718,0.4132656753063202,0.5057789087295532,0.9,0.81,0.0001
1719,0.4132656455039978,0.5057784914970398,0.9,0.81,0.0001
1720,0.4132656455039978,0.5057782530784607,0.9,0.81,0.0001
1721,0.41326552629470825,0.5057787895202637,0.9,0.81,0.0001
1722,0.4132656753063202,0.5057793259620667,0.9,0.81,0.0001
1723,0.4132656455039978,0.505778968334198,0.9,0.81,0.0001
1724,0.4132656455039978,0.5057799816131592,0.9,0.81,0.0001
1725,0.4132656157016754,0.5057794451713562,0.9,0.81,0.0001
1726,0.4132656455039978,0.505780041217804,0.9,0.81,0.0001
1727,0.4132656157016754,0.5057794451713562,0.9,0.81,0.0001
1728,0.41326573491096497,0.5057799220085144,0.9,0.81,0.0001
1729,0.4132656455039978,0.5057794451713562,0.9,0.81,0.0001
1730,0.4132656157016754,0.5057796239852905,0.9,0.81,0.0001
1731,0.4132656157016754,0.505780041217804,0.9,0.81,0.0001
1732,0.4132656455039978,0.505780041217804,0.9,0.81,0.0001
1733,0.4132656753063202,0.5057801008224487,0.9,0.81,0.0001
1734,0.4132656455039978,0.5057802200317383,0.9,0.81,0.0001
1735,0.4132656455039978,0.5057809352874756,0.9,0.81,0.0001
1736,0.4132656455039978,0.5057809948921204,0.9,0.81,0.0001
1737,0.4132656455039978,0.5057806372642517,0.9,0.81,0.0001
1738,0.4132656753063202,0.5057812929153442,0.9,0.81,0.0001
1739,0.4132656157016754,0.5057822465896606,0.9,0.81,0.0001
1740,0.413265585899353,0.505782425403595,0.9,0.81,0.0001
1741,0.4132656157016754,0.5057828426361084,0.9,0.81,0.0001
1742,0.413265585899353,0.5057832598686218,0.9,0.81,0.0001
1743,0.4132656455039978,0.5057826638221741,0.9,0.81,0.0001
1744,0.4132656157016754,0.5057823657989502,0.9,0.81,0.0001
1745,0.4132656753063202,0.5057831406593323,0.9,0.81,0.0001
1746,0.4132656455039978,0.5057838559150696,0.9,0.81,0.0001
1747,0.4132656455039978,0.5057837963104248,0.9,0.81,0.0001
1748,0.41326552629470825,0.5057833194732666,0.9,0.81,0.0001
1749,0.4132656455039978,0.5057834386825562,0.9,0.81,0.0001
1750,0.4132656157016754,0.505782961845398,0.9,0.81,0.0001
1751,0.4132656157016754,0.5057829022407532,0.9,0.81,0.0001
1752,0.413265585899353,0.5057833194732666,0.9,0.81,0.0001
1753,0.41326552629470825,0.5057836771011353,0.9,0.81,0.0001
1754,0.4132656157016754,0.5057840943336487,0.9,0.81,0.0001
1755,0.413265585899353,0.5057839751243591,0.9,0.81,0.0001
1756,0.41326549649238586,0.5057846307754517,0.9,0.81,0.0001
1757,0.413265585899353,0.5057850480079651,0.9,0.81,0.0001
1758,0.41326549649238586,0.5057859420776367,0.9,0.81,0.0001
1759,0.413265585899353,0.505785346031189,0.9,0.81,0.0001
1760,0.4132656157016754,0.5057858228683472,0.9,0.81,0.0001
1761,0.4132656157016754,0.5057854056358337,0.9,0.81,0.0001
1762,0.41326552629470825,0.5057857036590576,0.9,0.81,0.0001
1763,0.413265585899353,0.5057862997055054,0.9,0.81,0.0001
1764,0.41326552629470825,0.5057860016822815,0.9,0.81,0.0001
1765,0.4132656455039978,0.5057862997055054,0.9,0.81,0.0001
1766,0.413265585899353,0.5057858824729919,0.9,0.81,0.0001
1767,0.4132656157016754,0.505786120891571,0.9,0.81,0.0001
1768,0.4132656157016754,0.5057858228683472,0.9,0.81,0.0001
1769,0.41326552629470825,0.5057858824729919,0.9,0.81,0.0001
1770,0.41326549649238586,0.5057865977287292,0.9,0.81,0.0001
1771,0.4132654666900635,0.5057862401008606,0.9,0.81,0.0001
1772,0.413265585899353,0.5057871341705322,0.9,0.81,0.0001
1773,0.413265585899353,0.5057870149612427,0.9,0.81,0.0001
1774,0.413265585899353,0.5057867169380188,0.9,0.81,0.0001
1775,0.413265585899353,0.5057867169380188,0.9,0.81,0.0001
1776,0.41326552629470825,0.5057864785194397,0.9,0.81,0.0001
1777,0.41326549649238586,0.505786657333374,0.9,0.81,0.0001
1778,0.41326552629470825,0.5057874321937561,0.9,0.81,0.0001
1779,0.41326552629470825,0.5057874917984009,0.9,0.81,0.0001
1780,0.413265585899353,0.5057876110076904,0.9,0.81,0.0001
1781,0.41326552629470825,0.5057879090309143,0.9,0.81,0.0001
1782,0.4132656157016754,0.5057879686355591,0.9,0.81,0.0001
1783,0.41326549649238586,0.5057878494262695,0.9,0.81,0.0001
1784,0.41326552629470825,0.5057884454727173,0.9,0.81,0.0001
1785,0.413265585899353,0.5057880282402039,0.9,0.81,0.0001
1786,0.41326549649238586,0.5057891011238098,0.9,0.81,0.0001
1787,0.41326552629470825,0.5057899951934814,0.9,0.81,0.0001
1788,0.41326549649238586,0.505790114402771,0.9,0.81,0.0001
1789,0.4132654666900635,0.505790114402771,0.9,0.81,0.0001
1790,0.413265585899353,0.5057905912399292,0.9,0.81,0.0001
1791,0.41326552629470825,0.505790114402771,0.9,0.81,0.0001
1792,0.4132654666900635,0.5057896971702576,0.9,0.81,0.0001
1793,0.41326549649238586,0.5057899355888367,0.9,0.81,0.0001
1794,0.41326552629470825,0.5057899951934814,0.9,0.81,0.0001
1795,0.4132654666900635,0.5057903528213501,0.9,0.81,0.0001
1796,0.41326549649238586,0.5057899951934814,0.9,0.81,0.0001
1797,0.41326549649238586,0.505790650844574,0.9,0.81,0.0001
1798,0.4132654666900635,0.5057914853096008,0.9,0.81,0.0001
1799,0.41326549649238586,0.5057915449142456,0.9,0.81,0.0001
1800,0.4132654666900635,0.5057919025421143,0.9,0.81,0.0001
1801,0.41326552629470825,0.5057918429374695,0.9,0.81,0.0001
1802,0.41326552629470825,0.5057919025421143,0.9,0.81,0.0001
1803,0.41326552629470825,0.5057915449142456,0.9,0.81,0.0001
1804,0.4132654666900635,0.5057922601699829,0.9,0.81,0.0001
1805,0.41326549649238586,0.505791962146759,0.9,0.81,0.0001
1806,0.41326549649238586,0.5057921409606934,0.9,0.81,0.0001
1807,0.41326552629470825,0.5057914853096008,0.9,0.81,0.0001
1808,0.41326549649238586,0.5057916641235352,0.9,0.81,0.0001
