,train loss,val loss,train acc,val acc,lr
0,0.6694350242614746,0.6652638912200928,0.69,0.64,0.001
1,0.6523933410644531,0.6558725237846375,0.69,0.64,0.001
2,0.637037992477417,0.6484465003013611,0.69,0.64,0.001
3,0.6233881115913391,0.6434342861175537,0.69,0.64,0.001
4,0.611880898475647,0.6415095329284668,0.69,0.64,0.001
5,0.6033914089202881,0.6429641842842102,0.69,0.64,0.001
6,0.5988067388534546,0.6461846232414246,0.69,0.64,0.001
7,0.5973877906799316,0.6477012038230896,0.69,0.64,0.001
8,0.5958163738250732,0.6454882621765137,0.69,0.64,0.001
9,0.5914189219474792,0.6399728655815125,0.69,0.64,0.001
10,0.584354043006897,0.6328643560409546,0.69,0.64,0.001
11,0.5764546990394592,0.6257890462875366,0.7,0.63,0.001
12,0.5693573355674744,0.6197344064712524,0.71,0.6,0.001
13,0.5638524889945984,0.6149653196334839,0.73,0.62,0.001
14,0.5598859786987305,0.6110753417015076,0.75,0.66,0.001
15,0.556713879108429,0.6071318984031677,0.74,0.7,0.001
16,0.5532968640327454,0.6019226312637329,0.77,0.71,0.001
17,0.5487751960754395,0.5965332388877869,0.77,0.71,0.001
18,0.5426666140556335,0.6045002341270447,0.77,0.71,0.001
19,0.5436986684799194,0.5855046510696411,0.76,0.73,0.001
20,0.5318379402160645,0.5928393006324768,0.79,0.71,0.001
21,0.5320507287979126,0.6005105972290039,0.78,0.68,0.001
22,0.5323699712753296,0.6065173149108887,0.75,0.67,0.001
23,0.5311271548271179,0.6109516024589539,0.73,0.66,0.001
24,0.5275800228118896,0.613374650478363,0.74,0.66,0.001
25,0.5221673846244812,0.6117807626724243,0.75,0.65,0.001
26,0.5148721933364868,0.602724015712738,0.76,0.68,0.001
27,0.503019392490387,0.586198091506958,0.78,0.71,0.001
28,0.4907337427139282,0.5711385607719421,0.78,0.71,0.001
29,0.4854864478111267,0.5675761699676514,0.83,0.72,0.001
30,0.47789639234542847,0.5766019225120544,0.84,0.71,0.001
31,0.4670780301094055,0.5812394022941589,0.83,0.71,0.001
32,0.4674222469329834,0.5619582533836365,0.84,0.72,0.001
33,0.46204471588134766,0.559151828289032,0.85,0.73,0.001
34,0.46010857820510864,0.5736984014511108,0.85,0.7,0.001
35,0.46144938468933105,0.5586073398590088,0.86,0.74,0.001
36,0.45545440912246704,0.5505968928337097,0.86,0.73,0.001
37,0.4604683816432953,0.5687451958656311,0.86,0.71,0.001
38,0.45880377292633057,0.5605220198631287,0.86,0.7,0.001
39,0.4521665871143341,0.5424037575721741,0.88,0.75,0.001
40,0.4578714370727539,0.5579105615615845,0.85,0.74,0.001
41,0.4472084045410156,0.5643704533576965,0.88,0.72,0.001
42,0.45019450783729553,0.5465419292449951,0.88,0.74,0.001
43,0.44329410791397095,0.5395141839981079,0.87,0.73,0.001
44,0.446792870759964,0.5597410202026367,0.86,0.75,0.001
45,0.4400455057621002,0.5703602433204651,0.87,0.72,0.001
46,0.44240716099739075,0.5457451343536377,0.89,0.76,0.001
47,0.43275466561317444,0.5314119458198547,0.89,0.76,0.001
48,0.44114169478416443,0.5620633959770203,0.86,0.72,0.001
49,0.4344656467437744,0.5668681263923645,0.89,0.71,0.001
50,0.4412463903427124,0.5341265797615051,0.87,0.76,0.001
51,0.4265080690383911,0.5193423628807068,0.89,0.78,0.001
52,0.4413280785083771,0.5245969891548157,0.87,0.77,0.001
53,0.4244481325149536,0.5411641597747803,0.91,0.77,0.001
54,0.4277324676513672,0.5397075414657593,0.87,0.76,0.001
55,0.42717525362968445,0.5214097499847412,0.88,0.8,0.001
56,0.42572543025016785,0.5191382765769958,0.88,0.78,0.001
57,0.41975414752960205,0.5248371362686157,0.9,0.76,0.001
58,0.42303386330604553,0.5255606770515442,0.89,0.76,0.001
59,0.4190919101238251,0.5258317589759827,0.89,0.78,0.001
60,0.4183443486690521,0.5255052447319031,0.89,0.78,0.001
61,0.41953662037849426,0.523067831993103,0.89,0.79,0.001
62,0.41979095339775085,0.5232025980949402,0.91,0.78,0.001
63,0.41810303926467896,0.5267922878265381,0.91,0.76,0.001
64,0.4160028100013733,0.5275990962982178,0.89,0.77,0.001
65,0.41621682047843933,0.5224763751029968,0.89,0.77,0.001
66,0.41538020968437195,0.5162787437438965,0.9,0.78,0.001
67,0.4148215353488922,0.5213603377342224,0.89,0.77,0.001
68,0.4138029217720032,0.5203049182891846,0.89,0.78,0.001
69,0.41432011127471924,0.5152949690818787,0.89,0.78,0.001
70,0.4125727713108063,0.5104953050613403,0.9,0.8,0.001
71,0.41427844762802124,0.524330198764801,0.91,0.77,0.001
72,0.41383418440818787,0.5313518047332764,0.89,0.76,0.001
73,0.4159247577190399,0.5231339335441589,0.9,0.78,0.001
74,0.4114455282688141,0.5050334334373474,0.89,0.8,0.001
75,0.4218495488166809,0.5249646306037903,0.89,0.77,0.001
76,0.41186362504959106,0.529785692691803,0.89,0.76,0.001
77,0.41591396927833557,0.5252670645713806,0.9,0.77,0.001
78,0.41185063123703003,0.5086840987205505,0.89,0.8,0.001
79,0.41417139768600464,0.5238788723945618,0.89,0.76,0.001
80,0.40853673219680786,0.5263376832008362,0.9,0.77,0.001
81,0.409860759973526,0.520170271396637,0.9,0.79,0.001
82,0.40761157870292664,0.5197658538818359,0.9,0.79,0.001
83,0.4077659249305725,0.5265824794769287,0.9,0.76,0.001
84,0.4084484577178955,0.5234388709068298,0.9,0.77,0.001
85,0.40629562735557556,0.5176498293876648,0.91,0.79,0.001
86,0.40805289149284363,0.5225587487220764,0.9,0.77,0.001
87,0.4061047434806824,0.5234614014625549,0.9,0.78,0.001
88,0.4064839482307434,0.5180202722549438,0.91,0.79,0.001
89,0.40582847595214844,0.5181989669799805,0.9,0.79,0.001
90,0.4051373600959778,0.5228042602539062,0.91,0.77,0.001
91,0.4054630994796753,0.5189939737319946,0.91,0.8,0.001
92,0.40433621406555176,0.5155960321426392,0.91,0.79,0.001
93,0.4047110378742218,0.5158605575561523,0.91,0.8,0.001
94,0.40381839871406555,0.5195257067680359,0.91,0.78,0.001
95,0.4041025936603546,0.5153441429138184,0.91,0.8,0.001
96,0.40335968136787415,0.512961745262146,0.91,0.79,0.001
97,0.40345531702041626,0.5129042267799377,0.91,0.8,0.001
98,0.4030159115791321,0.5155764222145081,0.91,0.78,0.001
99,0.40291595458984375,0.514846920967102,0.91,0.79,0.001
100,0.40264609456062317,0.5112828016281128,0.91,0.8,0.001
101,0.4024476706981659,0.5101115703582764,0.91,0.8,0.001
102,0.40235626697540283,0.5110198855400085,0.91,0.8,0.001
103,0.4020185172557831,0.5130836963653564,0.91,0.78,0.001
104,0.4019870460033417,0.5120418071746826,0.91,0.8,0.001
105,0.4017412066459656,0.5095455050468445,0.91,0.8,0.001
106,0.40156877040863037,0.5084071755409241,0.91,0.8,0.001
107,0.40149861574172974,0.505873441696167,0.91,0.8,0.001
108,0.4012587368488312,0.501720130443573,0.91,0.81,0.001
109,0.40116387605667114,0.5013431310653687,0.91,0.8,0.001
110,0.40103623270988464,0.4993025064468384,0.91,0.81,0.001
111,0.40085315704345703,0.4979647099971771,0.91,0.81,0.001
112,0.40078848600387573,0.4980742633342743,0.91,0.81,0.001
113,0.4006235897541046,0.499421089887619,0.91,0.81,0.001
114,0.4005085229873657,0.5003222227096558,0.91,0.8,0.001
115,0.4004163444042206,0.4994998574256897,0.91,0.8,0.001
116,0.40027254819869995,0.49818116426467896,0.91,0.81,0.001
117,0.40019622445106506,0.49767863750457764,0.91,0.81,0.001
118,0.4000692665576935,0.49831363558769226,0.91,0.81,0.001
119,0.3999880254268646,0.49956199526786804,0.91,0.8,0.001
120,0.39987629652023315,0.5002736449241638,0.91,0.8,0.001
121,0.39978983998298645,0.5002716183662415,0.91,0.8,0.001
122,0.3997054398059845,0.5007729530334473,0.91,0.8,0.001
123,0.39960190653800964,0.5022268891334534,0.91,0.8,0.001
124,0.39953839778900146,0.5025549530982971,0.91,0.8,0.001
125,0.39943745732307434,0.5055077075958252,0.91,0.79,0.001
126,0.3993729054927826,0.510546863079071,0.91,0.79,0.001
127,0.399283230304718,0.511067807674408,0.91,0.79,0.001
128,0.3992205858230591,0.5106841921806335,0.91,0.79,0.001
129,0.3991366922855377,0.5102807879447937,0.91,0.79,0.001
130,0.39907482266426086,0.5106613039970398,0.91,0.79,0.001
131,0.3990018963813782,0.511481523513794,0.91,0.79,0.001
132,0.3989359736442566,0.5122813582420349,0.91,0.79,0.001
133,0.3988715708255768,0.5126119256019592,0.91,0.79,0.001
134,0.3988073468208313,0.5123841762542725,0.91,0.79,0.001
135,0.39874619245529175,0.5120891332626343,0.91,0.79,0.001
136,0.39868372678756714,0.5123302340507507,0.91,0.79,0.001
137,0.3986271917819977,0.5130903124809265,0.91,0.79,0.001
138,0.3985651433467865,0.5136892199516296,0.91,0.79,0.001
139,0.39851146936416626,0.5137876868247986,0.91,0.79,0.001
140,0.398451566696167,0.5136128067970276,0.91,0.79,0.001
141,0.3983989953994751,0.5135945081710815,0.91,0.79,0.001
142,0.39834144711494446,0.5138422250747681,0.91,0.79,0.001
143,0.39828982949256897,0.5142496228218079,0.91,0.79,0.001
144,0.39823290705680847,0.5146234035491943,0.91,0.79,0.001
145,0.39818209409713745,0.5148374438285828,0.91,0.79,0.001
146,0.39812642335891724,0.5147953629493713,0.91,0.79,0.001
147,0.39807432889938354,0.5147004127502441,0.91,0.79,0.001
148,0.3980199098587036,0.5148277878761292,0.91,0.79,0.001
149,0.39796748757362366,0.5152185559272766,0.91,0.79,0.001
150,0.39791226387023926,0.515533983707428,0.91,0.79,0.001
151,0.3978591561317444,0.5155832171440125,0.91,0.79,0.001
152,0.39780372381210327,0.5155421495437622,0.91,0.79,0.001
153,0.39774850010871887,0.5155676603317261,0.91,0.79,0.001
154,0.3976918160915375,0.5156903266906738,0.91,0.79,0.001
155,0.39763501286506653,0.5158944129943848,0.91,0.79,0.001
156,0.3975764214992523,0.5160970091819763,0.91,0.79,0.001
157,0.39751720428466797,0.5162081718444824,0.91,0.79,0.001
158,0.3974567651748657,0.516192615032196,0.91,0.79,0.001
159,0.3973948657512665,0.5161405801773071,0.91,0.79,0.001
160,0.39733174443244934,0.5162413716316223,0.91,0.79,0.001
161,0.3972669243812561,0.5164387226104736,0.91,0.79,0.001
162,0.3972010016441345,0.516575276851654,0.91,0.79,0.001
163,0.39713379740715027,0.5165724754333496,0.91,0.79,0.001
164,0.3970648944377899,0.5165475010871887,0.91,0.79,0.001
165,0.39699432253837585,0.5165859460830688,0.91,0.79,0.001
166,0.396922767162323,0.5166432857513428,0.91,0.79,0.001
167,0.39684975147247314,0.5166926383972168,0.91,0.79,0.001
168,0.3967755138874054,0.5167641043663025,0.91,0.79,0.001
169,0.3966996371746063,0.5167641043663025,0.92,0.79,0.001
170,0.39662331342697144,0.5166894793510437,0.92,0.79,0.001
171,0.3965458571910858,0.5166427493095398,0.92,0.79,0.001
172,0.396467387676239,0.5166981220245361,0.92,0.79,0.001
173,0.39638832211494446,0.5166957974433899,0.92,0.79,0.001
174,0.39630866050720215,0.5166056156158447,0.92,0.79,0.001
175,0.39622822403907776,0.5165033936500549,0.92,0.79,0.001
176,0.39614802598953247,0.5164582133293152,0.92,0.79,0.001
177,0.3960671126842499,0.5163885951042175,0.92,0.79,0.001
178,0.395986407995224,0.5162608027458191,0.92,0.79,0.001
179,0.39590588212013245,0.5161681771278381,0.92,0.79,0.001
180,0.39582496881484985,0.5159687995910645,0.92,0.79,0.001
181,0.39574477076530457,0.515423595905304,0.92,0.79,0.001
182,0.39566460251808167,0.5136431455612183,0.92,0.79,0.001
183,0.39558497071266174,0.5095341205596924,0.92,0.79,0.001
184,0.39550578594207764,0.5067798495292664,0.92,0.8,0.001
185,0.39542660117149353,0.505784809589386,0.92,0.8,0.001
186,0.39534783363342285,0.5053694844245911,0.92,0.8,0.001
187,0.3952690362930298,0.5050390958786011,0.92,0.8,0.001
188,0.39519014954566956,0.5048038363456726,0.92,0.8,0.001
189,0.3951106667518616,0.504713237285614,0.92,0.8,0.001
190,0.39503052830696106,0.5044630765914917,0.92,0.8,0.001
191,0.39494800567626953,0.5042065978050232,0.92,0.8,0.001
192,0.3948630392551422,0.5041165351867676,0.92,0.8,0.001
193,0.39477357268333435,0.50386643409729,0.92,0.81,0.001
194,0.39467674493789673,0.5037707686424255,0.92,0.81,0.001
195,0.39456942677497864,0.5037702918052673,0.92,0.81,0.001
196,0.3944454491138458,0.5037847757339478,0.92,0.81,0.001
197,0.39429524540901184,0.5040736198425293,0.92,0.8,0.001
198,0.394103080034256,0.5044829845428467,0.92,0.8,0.001
199,0.3938533663749695,0.5048547983169556,0.92,0.8,0.001
200,0.393532395362854,0.503781259059906,0.92,0.8,0.001
201,0.3931506276130676,0.5033386945724487,0.92,0.81,0.001
202,0.3932136595249176,0.4985085725784302,0.92,0.81,0.001
203,0.42174068093299866,0.5601193904876709,0.9,0.74,0.001
204,0.5297952890396118,0.5996075868606567,0.78,0.7,0.001
205,0.5665838718414307,0.5567731261253357,0.74,0.76,0.001
206,0.5137084126472473,0.7774925231933594,0.81,0.53,0.001
207,0.8087239265441895,0.5397924780845642,0.5,0.75,0.001
208,0.4605448544025421,0.5252701044082642,0.85,0.77,0.001
209,0.4595101475715637,0.5524048805236816,0.84,0.75,0.001
210,0.454824835062027,0.567531406879425,0.84,0.75,0.001
211,0.5015606880187988,0.5241408348083496,0.8,0.79,0.001
212,0.44958388805389404,0.5068708658218384,0.86,0.79,0.001
213,0.44259968400001526,0.5054330229759216,0.86,0.81,0.001
214,0.43736153841018677,0.6231514811515808,0.87,0.68,0.001
215,0.49621254205703735,0.5625202059745789,0.82,0.75,0.001
216,0.45961901545524597,0.5253493189811707,0.86,0.78,0.001
217,0.4626167416572571,0.5328201651573181,0.85,0.77,0.001
218,0.4906425476074219,0.5523039698600769,0.82,0.77,0.001
219,0.5180197954177856,0.5761264562606812,0.79,0.73,0.001
220,0.5270784497261047,0.5763158202171326,0.78,0.73,0.001
221,0.5284305810928345,0.5725814700126648,0.78,0.75,0.001
222,0.5210464000701904,0.5692200064659119,0.79,0.74,0.001
223,0.5116438865661621,0.5635679960250854,0.8,0.75,0.001
224,0.527743399143219,0.5637342929840088,0.79,0.74,0.001
225,0.5435170531272888,0.5658544301986694,0.77,0.75,0.001
226,0.5280409455299377,0.5768210291862488,0.79,0.73,0.001
227,0.5096876621246338,0.570075511932373,0.8,0.74,0.001
228,0.5150976777076721,0.5690006017684937,0.8,0.74,0.001
229,0.517479658126831,0.5688039660453796,0.8,0.75,0.001
230,0.5134291648864746,0.5773327946662903,0.8,0.73,0.001
231,0.5078784823417664,0.5747180581092834,0.81,0.73,0.001
232,0.5141669511795044,0.577200710773468,0.81,0.72,0.001
233,0.5067996978759766,0.573999285697937,0.81,0.73,0.001
234,0.508733332157135,0.5676261782646179,0.8,0.74,0.001
235,0.5099421143531799,0.5700057744979858,0.8,0.74,0.001
236,0.5081894397735596,0.5772883296012878,0.81,0.74,0.001
237,0.506432294845581,0.5774011015892029,0.81,0.73,0.001
238,0.5084718465805054,0.5779403448104858,0.81,0.73,0.001
239,0.5077862739562988,0.5760866403579712,0.81,0.74,0.001
240,0.5063369274139404,0.5672885775566101,0.81,0.74,0.001
241,0.507469892501831,0.5670894384384155,0.81,0.74,0.001
242,0.5077673196792603,0.5691301822662354,0.81,0.74,0.001
243,0.5065041780471802,0.5770311951637268,0.81,0.74,0.001
244,0.5062949657440186,0.5762899518013,0.81,0.73,0.001
245,0.5071637034416199,0.5764510631561279,0.81,0.73,0.001
246,0.506502628326416,0.5754838585853577,0.81,0.74,0.001
247,0.5059122443199158,0.5683351755142212,0.81,0.74,0.001
248,0.5063250064849854,0.5678673386573792,0.81,0.74,0.001
249,0.5064583420753479,0.5719398260116577,0.81,0.73,0.001
250,0.505906343460083,0.574563205242157,0.81,0.74,0.001
251,0.5056651830673218,0.5691115260124207,0.81,0.73,0.001
252,0.5059424638748169,0.567160427570343,0.81,0.74,0.001
253,0.5059190988540649,0.5690699219703674,0.81,0.73,0.001
254,0.5055401921272278,0.5725104808807373,0.81,0.74,0.001
255,0.5054396390914917,0.5726022124290466,0.81,0.73,0.001
256,0.5055872201919556,0.5720939040184021,0.81,0.73,0.001
257,0.505550742149353,0.5698190927505493,0.81,0.74,0.001
258,0.5053133368492126,0.5646849274635315,0.81,0.74,0.001
259,0.5051952600479126,0.5623320937156677,0.81,0.75,0.001
260,0.5052525997161865,0.5617427825927734,0.81,0.75,0.001
261,0.5052496194839478,0.5616897940635681,0.81,0.75,0.001
262,0.5050960779190063,0.562312126159668,0.81,0.75,0.001
263,0.504972517490387,0.5634911060333252,0.81,0.75,0.001
264,0.504962146282196,0.5639111995697021,0.81,0.75,0.001
265,0.5049620866775513,0.5629473924636841,0.81,0.76,0.001
266,0.5048817992210388,0.5613970756530762,0.81,0.76,0.001
267,0.5047652721405029,0.560377836227417,0.81,0.75,0.001
268,0.5046940445899963,0.559965193271637,0.81,0.75,0.001
269,0.5046681761741638,0.5597489476203918,0.81,0.75,0.001
270,0.5046235918998718,0.5596042275428772,0.81,0.75,0.001
271,0.5045340061187744,0.559518575668335,0.81,0.75,0.001
272,0.5044394135475159,0.5594900846481323,0.81,0.75,0.001
273,0.5043736100196838,0.5594393610954285,0.81,0.75,0.001
274,0.504320502281189,0.559248685836792,0.81,0.75,0.001
275,0.5042499303817749,0.558957576751709,0.81,0.75,0.001
276,0.5041511654853821,0.5587264895439148,0.81,0.75,0.001
277,0.504037618637085,0.5585906505584717,0.81,0.75,0.001
278,0.5039264559745789,0.5584508180618286,0.81,0.75,0.001
279,0.5038236379623413,0.5583003759384155,0.81,0.75,0.001
280,0.5037012696266174,0.5581924319267273,0.81,0.75,0.001
281,0.5035346746444702,0.5580477714538574,0.81,0.75,0.001
282,0.5033649206161499,0.5578662753105164,0.81,0.75,0.001
283,0.5032010078430176,0.5577020049095154,0.81,0.75,0.001
284,0.5030026435852051,0.5574960112571716,0.81,0.75,0.001
285,0.5027883052825928,0.5572084188461304,0.81,0.75,0.001
286,0.5025945901870728,0.5568887591362,0.81,0.75,0.001
287,0.5023494958877563,0.5564963817596436,0.81,0.75,0.001
288,0.5021234154701233,0.5560120940208435,0.81,0.75,0.001
289,0.5018736720085144,0.5554109811782837,0.81,0.75,0.001
290,0.5016133189201355,0.5547229647636414,0.81,0.75,0.001
291,0.5013427138328552,0.5539922118186951,0.82,0.75,0.001
292,0.5010623335838318,0.5531878471374512,0.82,0.75,0.001
293,0.5007627606391907,0.5527428984642029,0.82,0.76,0.001
294,0.5004662275314331,0.5566287040710449,0.82,0.75,0.001
295,0.5001421570777893,0.5606284737586975,0.82,0.75,0.001
296,0.499836266040802,0.560524046421051,0.82,0.75,0.001
297,0.4995054602622986,0.5601298809051514,0.82,0.75,0.001
298,0.49918627738952637,0.5594446063041687,0.82,0.75,0.001
299,0.49887320399284363,0.5592907667160034,0.82,0.75,0.001
300,0.4985497295856476,0.5590617656707764,0.82,0.75,0.001
301,0.49824780225753784,0.5583921670913696,0.82,0.75,0.001
302,0.49794793128967285,0.557955265045166,0.82,0.75,0.0007937005259840996
303,0.49765726923942566,0.5576561689376831,0.82,0.75,0.0007937005259840996
304,0.497437059879303,0.5571343898773193,0.82,0.75,0.0007937005259840996
305,0.4972216486930847,0.5565111041069031,0.82,0.75,0.0007937005259840996
306,0.4970196783542633,0.5459842085838318,0.82,0.76,0.0007937005259840996
307,0.49682143330574036,0.5454321503639221,0.82,0.76,0.0007937005259840996
308,0.49663612246513367,0.5447949171066284,0.82,0.76,0.0007937005259840996
309,0.4964570105075836,0.5441374778747559,0.82,0.76,0.0007937005259840996
310,0.4962913990020752,0.5434947609901428,0.82,0.76,0.0007937005259840996
311,0.4961320161819458,0.5428033471107483,0.82,0.76,0.0007937005259840996
312,0.49598297476768494,0.5421234369277954,0.82,0.76,0.0007937005259840996
313,0.4958440065383911,0.5414645075798035,0.82,0.76,0.0007937005259840996
314,0.49571335315704346,0.5407838225364685,0.82,0.76,0.0007937005259840996
315,0.49559202790260315,0.5400688648223877,0.82,0.77,0.0007937005259840996
316,0.49547699093818665,0.5393552184104919,0.82,0.77,0.0007937005259840996
317,0.4953716993331909,0.5386985540390015,0.82,0.77,0.0007937005259840996
318,0.49527212977409363,0.5380646586418152,0.82,0.77,0.0007937005259840996
319,0.49518057703971863,0.5374029278755188,0.82,0.77,0.0007937005259840996
320,0.49509432911872864,0.5367162823677063,0.82,0.77,0.0007937005259840996
321,0.4950140416622162,0.5360780954360962,0.82,0.77,0.0007937005259840996
322,0.494939386844635,0.5354974865913391,0.82,0.77,0.0007937005259840996
323,0.49486878514289856,0.5349403023719788,0.82,0.77,0.0007937005259840996
324,0.49480339884757996,0.5343819260597229,0.82,0.77,0.0007937005259840996
325,0.4947415888309479,0.5338574647903442,0.82,0.77,0.0007937005259840996
326,0.4946838319301605,0.5333757400512695,0.82,0.78,0.0007937005259840996
327,0.4946298897266388,0.5329264998435974,0.82,0.78,0.0007937005259840996
328,0.4945785403251648,0.5325113534927368,0.82,0.78,0.0007937005259840996
329,0.4945307970046997,0.5321282744407654,0.82,0.78,0.0007937005259840996
330,0.4944855570793152,0.531775176525116,0.82,0.79,0.0007937005259840996
331,0.4944426715373993,0.5314570665359497,0.82,0.79,0.0007937005259840996
332,0.4944027066230774,0.5311541557312012,0.82,0.79,0.0007937005259840996
333,0.49436458945274353,0.5308683514595032,0.82,0.79,0.0007937005259840996
334,0.49432867765426636,0.5306101441383362,0.82,0.79,0.0007937005259840996
335,0.4942949712276459,0.5303847193717957,0.82,0.79,0.0007937005259840996
336,0.4942629337310791,0.5301827788352966,0.82,0.79,0.0007937005259840996
337,0.49423253536224365,0.5299866199493408,0.82,0.79,0.0007937005259840996
338,0.4942038059234619,0.529803991317749,0.82,0.79,0.0007937005259840996
339,0.4941766858100891,0.5296310782432556,0.82,0.79,0.0007937005259840996
340,0.49415087699890137,0.5294619798660278,0.82,0.79,0.0007937005259840996
341,0.49412623047828674,0.5293274521827698,0.82,0.79,0.0007937005259840996
342,0.49410274624824524,0.5291990637779236,0.82,0.79,0.0007937005259840996
343,0.49408042430877686,0.5290833711624146,0.82,0.79,0.0007937005259840996
344,0.49405932426452637,0.5289621949195862,0.82,0.79,0.0007937005259840996
345,0.49403899908065796,0.5288425087928772,0.82,0.79,0.0007937005259840996
346,0.49401959776878357,0.5287309885025024,0.82,0.79,0.0007937005259840996
347,0.49400103092193604,0.528628408908844,0.82,0.79,0.0007937005259840996
348,0.4939834177494049,0.5285460352897644,0.82,0.79,0.0007937005259840996
349,0.49396634101867676,0.5284584760665894,0.82,0.79,0.0007937005259840996
350,0.49394991993904114,0.5283883213996887,0.82,0.79,0.0007937005259840996
351,0.49393460154533386,0.5283054113388062,0.82,0.79,0.0007937005259840996
352,0.49391940236091614,0.5282153487205505,0.82,0.79,0.0007937005259840996
353,0.49390488862991333,0.528134286403656,0.82,0.79,0.0007937005259840996
354,0.49389103055000305,0.528064489364624,0.82,0.79,0.0007937005259840996
355,0.493877649307251,0.5280042886734009,0.82,0.79,0.0007937005259840996
356,0.49386465549468994,0.5279526710510254,0.82,0.79,0.0007937005259840996
357,0.4938523769378662,0.5278846621513367,0.82,0.79,0.0007937005259840996
358,0.49384039640426636,0.5278247594833374,0.82,0.79,0.0007937005259840996
359,0.49382877349853516,0.5277605056762695,0.82,0.79,0.0007937005259840996
360,0.49381744861602783,0.5277051329612732,0.82,0.79,0.0007937005259840996
361,0.4938068389892578,0.5276510119438171,0.82,0.79,0.0007937005259840996
362,0.49379631876945496,0.5275989770889282,0.82,0.79,0.0007937005259840996
363,0.4937860369682312,0.5275513529777527,0.82,0.79,0.0007937005259840996
364,0.4937763512134552,0.5275034308433533,0.82,0.79,0.0007937005259840996
365,0.4937668740749359,0.5274573564529419,0.82,0.79,0.0007937005259840996
366,0.4937576651573181,0.5274073481559753,0.82,0.79,0.0007937005259840996
367,0.4937487542629242,0.5273554921150208,0.82,0.79,0.0007937005259840996
368,0.4937399923801422,0.5273206233978271,0.82,0.79,0.0007937005259840996
369,0.4937314987182617,0.5272867679595947,0.82,0.79,0.0007937005259840996
370,0.49372342228889465,0.5272388458251953,0.82,0.79,0.0007937005259840996
371,0.49371537566185,0.5271972417831421,0.82,0.79,0.0007937005259840996
372,0.49370765686035156,0.5271515250205994,0.82,0.79,0.0007937005259840996
373,0.49370014667510986,0.5271179676055908,0.82,0.79,0.0007937005259840996
374,0.4936927855014801,0.5270870327949524,0.82,0.79,0.0007937005259840996
375,0.4936855733394623,0.5270527005195618,0.82,0.79,0.0007937005259840996
376,0.49367859959602356,0.5270160436630249,0.82,0.79,0.0007937005259840996
377,0.493671715259552,0.5269758701324463,0.82,0.79,0.0007937005259840996
378,0.4936651289463043,0.5269376039505005,0.82,0.79,0.0007937005259840996
379,0.49365857243537903,0.5269085168838501,0.82,0.79,0.0007937005259840996
380,0.49365219473838806,0.5268816351890564,0.82,0.79,0.0007937005259840996
381,0.4936460554599762,0.5268564820289612,0.82,0.79,0.0007937005259840996
382,0.49363991618156433,0.5268239378929138,0.82,0.79,0.0007937005259840996
383,0.49363377690315247,0.5267953276634216,0.82,0.79,0.0007937005259840996
384,0.49362805485725403,0.5267600417137146,0.82,0.79,0.0007937005259840996
385,0.4936223328113556,0.5267254114151001,0.82,0.79,0.0007937005259840996
386,0.49361667037010193,0.5266954302787781,0.82,0.79,0.0007937005259840996
387,0.49361103773117065,0.5266759991645813,0.82,0.79,0.0007937005259840996
388,0.49360576272010803,0.5266503095626831,0.82,0.79,0.0007937005259840996
389,0.4936002492904663,0.5266270637512207,0.82,0.79,0.0007937005259840996
390,0.4935949742794037,0.5266023874282837,0.82,0.79,0.0007937005259840996
391,0.4935896694660187,0.5265783071517944,0.82,0.79,0.0007937005259840996
392,0.4935845136642456,0.52654629945755,0.82,0.79,0.0007937005259840996
393,0.49357935786247253,0.5265183448791504,0.82,0.79,0.0007937005259840996
394,0.4935741722583771,0.5264911651611328,0.82,0.79,0.0007937005259840996
395,0.49356910586357117,0.5264734625816345,0.82,0.79,0.0007937005259840996
396,0.49356400966644287,0.5264564156532288,0.82,0.79,0.0007937005259840996
397,0.4935588836669922,0.5264395475387573,0.82,0.79,0.0007937005259840996
398,0.49355369806289673,0.526416003704071,0.82,0.79,0.0007937005259840996
399,0.4935484230518341,0.5263930559158325,0.82,0.79,0.0007937005259840996
400,0.49354317784309387,0.5263718962669373,0.82,0.79,0.0007937005259840996
401,0.4935377240180969,0.5263569951057434,0.82,0.79,0.0007937005259840996
402,0.4935322701931,0.5263307094573975,0.82,0.79,0.0007937005259840996
403,0.4935262203216553,0.5263225436210632,0.82,0.79,0.0006299605249474364
404,0.4935201406478882,0.5263147354125977,0.82,0.79,0.0006299605249474364
405,0.493514746427536,0.5263121128082275,0.82,0.79,0.0006299605249474364
406,0.4935089945793152,0.5263050198554993,0.82,0.79,0.0006299605249474364
407,0.49350258708000183,0.5262970924377441,0.82,0.79,0.0006299605249474364
408,0.49349525570869446,0.5262956023216248,0.82,0.79,0.0006299605249474364
409,0.4934867024421692,0.5263019800186157,0.82,0.79,0.0006299605249474364
410,0.49347633123397827,0.5263246297836304,0.82,0.79,0.0006299605249474364
411,0.4934632182121277,0.5263606309890747,0.82,0.79,0.0006299605249474364
412,0.4934453070163727,0.5264187455177307,0.82,0.79,0.0006299605249474364
413,0.4934193789958954,0.5265038013458252,0.82,0.79,0.0006299605249474364
414,0.493377685546875,0.5266069769859314,0.82,0.79,0.0006299605249474364
415,0.4933001399040222,0.5267115235328674,0.82,0.79,0.0006299605249474364
416,0.4931161403656006,0.5275002121925354,0.82,0.79,0.0006299605249474364
417,0.49239659309387207,0.5302091240882874,0.82,0.78,0.0006299605249474364
418,0.4883374869823456,0.5480659008026123,0.82,0.75,0.0006299605249474364
419,0.49116984009742737,0.5331456661224365,0.81,0.78,0.0006299605249474364
420,0.47392508387565613,0.5228777527809143,0.84,0.79,0.0006299605249474364
421,0.4563806653022766,0.5306873917579651,0.85,0.78,0.0006299605249474364
422,0.42111751437187195,0.5244354009628296,0.89,0.79,0.0006299605249474364
423,0.40792423486709595,0.5242578387260437,0.91,0.78,0.0006299605249474364
424,0.41849133372306824,0.5375071167945862,0.89,0.77,0.0006299605249474364
425,0.4229635000228882,0.5449417233467102,0.9,0.76,0.0006299605249474364
426,0.4310832619667053,0.5501279830932617,0.88,0.74,0.0006299605249474364
427,0.4330907166004181,0.5434622764587402,0.88,0.76,0.0006299605249474364
428,0.4277498722076416,0.5323916077613831,0.87,0.78,0.0006299605249474364
429,0.422588050365448,0.5298798084259033,0.89,0.78,0.0006299605249474364
430,0.41757363080978394,0.5312759280204773,0.9,0.76,0.0006299605249474364
431,0.4163363575935364,0.512723445892334,0.9,0.8,0.0006299605249474364
432,0.4021925628185272,0.5124445557594299,0.92,0.81,0.0006299605249474364
433,0.4043255150318146,0.5473698973655701,0.91,0.76,0.0006299605249474364
434,0.42831841111183167,0.4859805703163147,0.88,0.83,0.0006299605249474364
435,0.42330676317214966,0.48874568939208984,0.89,0.82,0.0006299605249474364
436,0.43889716267585754,0.6000928282737732,0.87,0.7,0.0006299605249474364
437,0.5538185238838196,0.9297387003898621,0.75,0.37,0.0006299605249474364
438,1.0235199928283691,1.0220859050750732,0.27,0.27,0.0006299605249474364
439,1.0641334056854248,1.0046589374542236,0.23,0.29,0.0006299605249474364
440,1.0471928119659424,0.999757707118988,0.24,0.29,0.0006299605249474364
441,1.0362311601638794,0.9845115542411804,0.24,0.3,0.0006299605249474364
442,1.0292283296585083,0.9613716006278992,0.24,0.31,0.0006299605249474364
443,1.0093882083892822,0.9359326958656311,0.26,0.34,0.0006299605249474364
444,0.992652416229248,0.8948838710784912,0.26,0.38,0.0006299605249474364
445,0.9900338053703308,0.9305884838104248,0.27,0.33,0.0006299605249474364
446,0.981230616569519,0.9291593432426453,0.28,0.32,0.0006299605249474364
447,0.9621096849441528,0.8347331285476685,0.29,0.4,0.0006299605249474364
448,0.7801195383071899,0.5632834434509277,0.5,0.74,0.0006299605249474364
449,0.5296272039413452,0.857144296169281,0.77,0.42,0.0006299605249474364
450,0.8894221782684326,0.9150903820991516,0.39,0.37,0.0006299605249474364
451,0.9485520720481873,0.898942232131958,0.33,0.37,0.0006299605249474364
452,0.9284204244613647,0.8475815057754517,0.32,0.37,0.0006299605249474364
453,0.8665527105331421,0.7587012648582458,0.34,0.4,0.0006299605249474364
454,0.7649244070053101,0.6874544620513916,0.37,0.59,0.0006299605249474364
455,0.6809667348861694,0.6543563008308411,0.59,0.68,0.0006299605249474364
456,0.6339605450630188,0.6420581936836243,0.78,0.61,0.0006299605249474364
457,0.6084015369415283,0.6467986106872559,0.73,0.63,0.0006299605249474364
458,0.5898756980895996,0.6725471019744873,0.71,0.62,0.0006299605249474364
459,0.6252170205116272,0.6736835241317749,0.67,0.63,0.0006299605249474364
460,0.6822551488876343,0.7103854417800903,0.62,0.6,0.0006299605249474364
461,0.7329730987548828,0.805380642414093,0.57,0.5,0.0006299605249474364
462,0.7718597650527954,0.8347348570823669,0.53,0.47,0.0006299605249474364
463,0.8109676241874695,0.8540697693824768,0.49,0.45,0.0006299605249474364
464,0.7909298539161682,0.8216966986656189,0.51,0.48,0.0006299605249474364
465,0.7222987413406372,0.8097168207168579,0.58,0.49,0.0006299605249474364
466,0.702139675617218,0.7514468431472778,0.6,0.55,0.0006299605249474364
467,0.6439476013183594,0.7206640839576721,0.66,0.58,0.0006299605249474364
468,0.6037658452987671,0.6915978193283081,0.7,0.61,0.0006299605249474364
469,0.6126700043678284,0.6721664667129517,0.69,0.63,0.0006299605249474364
470,0.6211541295051575,0.662143349647522,0.68,0.64,0.0006299605249474364
471,0.6208438277244568,0.662081778049469,0.68,0.64,0.0006299605249474364
472,0.6202394366264343,0.6613658666610718,0.68,0.64,0.0006299605249474364
473,0.6095845699310303,0.6601388454437256,0.69,0.64,0.0006299605249474364
474,0.6081392765045166,0.6583073139190674,0.69,0.64,0.0006299605249474364
475,0.6061874628067017,0.6559579372406006,0.69,0.64,0.0006299605249474364
476,0.6038978099822998,0.6532143950462341,0.69,0.64,0.0006299605249474364
477,0.6013206243515015,0.6500799059867859,0.69,0.64,0.0006299605249474364
478,0.5983828902244568,0.646476149559021,0.69,0.64,0.0006299605249474364
479,0.5949888825416565,0.6423560976982117,0.69,0.64,0.0006299605249474364
480,0.59110426902771,0.6379045844078064,0.69,0.64,0.0006299605249474364
481,0.5866884589195251,0.6355836391448975,0.69,0.64,0.0006299605249474364
482,0.5816398859024048,0.6413921117782593,0.7,0.64,0.0006299605249474364
483,0.5797898173332214,0.6254237294197083,0.7,0.64,0.0006299605249474364
484,0.5778272151947021,0.6249136924743652,0.71,0.64,0.0006299605249474364
485,0.5779772996902466,0.624170184135437,0.71,0.63,0.0006299605249474364
486,0.5784194469451904,0.6237237453460693,0.73,0.63,0.0006299605249474364
487,0.5788921117782593,0.623195469379425,0.76,0.63,0.0006299605249474364
488,0.5785573124885559,0.6222202777862549,0.75,0.64,0.0006299605249474364
489,0.5768009424209595,0.6208342909812927,0.73,0.63,0.0006299605249474364
490,0.5736501812934875,0.6194653511047363,0.73,0.64,0.0006299605249474364
491,0.5697424411773682,0.6186698079109192,0.73,0.63,0.0006299605249474364
492,0.566010057926178,0.6187496185302734,0.75,0.62,0.0006299605249474364
493,0.5631594657897949,0.6196057796478271,0.76,0.62,0.0006299605249474364
494,0.561386227607727,0.6208318471908569,0.73,0.62,0.0006299605249474364
495,0.5604108572006226,0.6219699382781982,0.73,0.62,0.0006299605249474364
496,0.5597567558288574,0.622664213180542,0.73,0.62,0.0006299605249474364
497,0.5589845776557922,0.6227127909660339,0.73,0.61,0.0006299605249474364
498,0.5578027963638306,0.6220582127571106,0.73,0.61,0.0006299605249474364
499,0.5561022758483887,0.6207535266876221,0.74,0.62,0.0006299605249474364
500,0.5539324283599854,0.6189125180244446,0.73,0.65,0.0006299605249474364
501,0.5514401197433472,0.6167351007461548,0.73,0.63,0.0006299605249474364
502,0.5488814115524292,0.6144561171531677,0.74,0.62,0.0006299605249474364
503,0.5465213656425476,0.6123077869415283,0.74,0.64,0.0006299605249474364
504,0.5445442795753479,0.6104474663734436,0.74,0.67,0.0004999999999999997
505,0.5429230332374573,0.6092315912246704,0.77,0.67,0.0004999999999999997
506,0.5416858196258545,0.6082477569580078,0.78,0.66,0.0004999999999999997
507,0.5402474999427795,0.6074802875518799,0.78,0.68,0.0004999999999999997
508,0.5384631156921387,0.6069434285163879,0.78,0.68,0.0004999999999999997
509,0.5363726019859314,0.6066475510597229,0.78,0.67,0.0004999999999999997
510,0.5341874957084656,0.6065135598182678,0.77,0.67,0.0004999999999999997
511,0.5321827530860901,0.606330931186676,0.76,0.67,0.0004999999999999997
512,0.530511736869812,0.6058230400085449,0.77,0.67,0.0004999999999999997
513,0.529130756855011,0.6048060655593872,0.79,0.68,0.0004999999999999997
514,0.5278583765029907,0.6032614707946777,0.79,0.68,0.0004999999999999997
515,0.5265135169029236,0.6013416647911072,0.79,0.68,0.0004999999999999997
516,0.524992048740387,0.5992701649665833,0.79,0.68,0.0004999999999999997
517,0.5232194066047668,0.5971775054931641,0.77,0.68,0.0004999999999999997
518,0.5210696458816528,0.5950433611869812,0.77,0.67,0.0004999999999999997
519,0.5183842182159424,0.5927177667617798,0.77,0.67,0.0004999999999999997
520,0.5150888562202454,0.5902120471000671,0.77,0.68,0.0004999999999999997
521,0.5114111304283142,0.5877948999404907,0.79,0.68,0.0004999999999999997
522,0.507805347442627,0.5856157541275024,0.79,0.71,0.0004999999999999997
523,0.5045149326324463,0.5834332704544067,0.81,0.71,0.0004999999999999997
524,0.5012332201004028,0.580817699432373,0.81,0.71,0.0004999999999999997
525,0.4972977042198181,0.5774691104888916,0.81,0.72,0.0004999999999999997
526,0.4923112094402313,0.5733659863471985,0.81,0.74,0.0004999999999999997
527,0.48681044578552246,0.5688378810882568,0.83,0.74,0.0004999999999999997
528,0.4820541441440582,0.5647706985473633,0.83,0.73,0.0004999999999999997
529,0.4785579442977905,0.5623601675033569,0.83,0.75,0.0004999999999999997
530,0.4752223491668701,0.562536358833313,0.83,0.73,0.0004999999999999997
531,0.47118905186653137,0.5645799040794373,0.84,0.71,0.0004999999999999997
532,0.4681915044784546,0.5647402405738831,0.86,0.71,0.0004999999999999997
533,0.46655967831611633,0.5603798031806946,0.86,0.71,0.0004999999999999997
534,0.4635715186595917,0.5537960529327393,0.86,0.73,0.0004999999999999997
535,0.46131476759910583,0.5495521426200867,0.84,0.74,0.0004999999999999997
536,0.46055591106414795,0.5490343570709229,0.83,0.73,0.0004999999999999997
537,0.4584023952484131,0.5509775280952454,0.84,0.73,0.0004999999999999997
538,0.4568914473056793,0.5522739291191101,0.85,0.73,0.0004999999999999997
539,0.4561813473701477,0.5498570203781128,0.85,0.73,0.0004999999999999997
540,0.45468756556510925,0.5449504256248474,0.85,0.75,0.0004999999999999997
541,0.45329955220222473,0.5415282845497131,0.84,0.76,0.0004999999999999997
542,0.45285120606422424,0.5413325428962708,0.85,0.77,0.0004999999999999997
543,0.45180022716522217,0.5436801314353943,0.84,0.75,0.0004999999999999997
544,0.45090311765670776,0.5450089573860168,0.85,0.74,0.0004999999999999997
545,0.45046597719192505,0.542532742023468,0.85,0.76,0.0004999999999999997
546,0.44949859380722046,0.5382882952690125,0.85,0.77,0.0004999999999999997
547,0.44861942529678345,0.5356805920600891,0.86,0.78,0.0004999999999999997
548,0.44812798500061035,0.5355841517448425,0.86,0.77,0.0004999999999999997
549,0.44721803069114685,0.5371300578117371,0.87,0.77,0.0004999999999999997
550,0.44637981057167053,0.5378000736236572,0.86,0.77,0.0004999999999999997
551,0.4457117021083832,0.5358509421348572,0.87,0.77,0.0004999999999999997
552,0.44471660256385803,0.5330163836479187,0.87,0.77,0.0004999999999999997
553,0.443871408700943,0.5317968130111694,0.87,0.77,0.0004999999999999997
554,0.44318652153015137,0.532447099685669,0.87,0.77,0.0004999999999999997
555,0.4422686696052551,0.5339982509613037,0.87,0.77,0.0004999999999999997
556,0.44148245453834534,0.5344684720039368,0.88,0.77,0.0004999999999999997
557,0.4407433569431305,0.533016562461853,0.87,0.77,0.0004999999999999997
558,0.4397907257080078,0.5311504006385803,0.88,0.77,0.0004999999999999997
559,0.4389197528362274,0.5303157567977905,0.87,0.77,0.0004999999999999997
560,0.43804752826690674,0.5306662917137146,0.87,0.77,0.0004999999999999997
561,0.4370163083076477,0.5313951969146729,0.88,0.77,0.0004999999999999997
562,0.4360452890396118,0.5311406254768372,0.87,0.77,0.0004999999999999997
563,0.43505263328552246,0.5297263264656067,0.87,0.77,0.0004999999999999997
564,0.43395543098449707,0.5282754302024841,0.87,0.77,0.0004999999999999997
565,0.43294113874435425,0.5275501608848572,0.88,0.77,0.0004999999999999997
566,0.4319034218788147,0.5274252891540527,0.88,0.77,0.0004999999999999997
567,0.43081173300743103,0.5272287726402283,0.87,0.77,0.0004999999999999997
568,0.42977091670036316,0.5263856053352356,0.89,0.77,0.0004999999999999997
569,0.42869120836257935,0.5251991748809814,0.89,0.78,0.0004999999999999997
570,0.4275968074798584,0.5243166089057922,0.89,0.79,0.0004999999999999997
571,0.42654311656951904,0.523952305316925,0.89,0.79,0.0004999999999999997
572,0.4254230260848999,0.5238437056541443,0.89,0.78,0.0004999999999999997
573,0.42433425784111023,0.5234878063201904,0.89,0.78,0.0004999999999999997
574,0.42327064275741577,0.5227493047714233,0.89,0.78,0.0004999999999999997
575,0.42219266295433044,0.5220221877098083,0.89,0.78,0.0004999999999999997
576,0.4211764931678772,0.525205671787262,0.89,0.77,0.0004999999999999997
577,0.42017653584480286,0.5310149788856506,0.89,0.77,0.0004999999999999997
578,0.41922053694725037,0.5306305885314941,0.9,0.77,0.0004999999999999997
579,0.41832050681114197,0.5299398303031921,0.9,0.77,0.0004999999999999997
580,0.41747307777404785,0.5292728543281555,0.9,0.77,0.0004999999999999997
581,0.41679447889328003,0.5289624929428101,0.9,0.77,0.0004999999999999997
582,0.4161873757839203,0.5290881991386414,0.9,0.77,0.0004999999999999997
583,0.4151650369167328,0.529011607170105,0.9,0.77,0.0004999999999999997
584,0.4144352972507477,0.5285845398902893,0.9,0.77,0.0004999999999999997
585,0.41377609968185425,0.5281141400337219,0.9,0.76,0.0004999999999999997
586,0.41314697265625,0.5275571346282959,0.9,0.76,0.0004999999999999997
587,0.41253960132598877,0.5270940661430359,0.9,0.76,0.0004999999999999997
588,0.4119627773761749,0.5265495181083679,0.9,0.76,0.0004999999999999997
589,0.41141074895858765,0.52593594789505,0.9,0.76,0.0004999999999999997
590,0.4108874499797821,0.5252755880355835,0.9,0.78,0.0004999999999999997
591,0.4103919267654419,0.5245660543441772,0.9,0.78,0.0004999999999999997
592,0.4099107086658478,0.5239068865776062,0.9,0.79,0.0004999999999999997
593,0.40945136547088623,0.5235984325408936,0.9,0.79,0.0004999999999999997
594,0.4090053141117096,0.5232318043708801,0.9,0.79,0.0004999999999999997
595,0.40856918692588806,0.5229704976081848,0.9,0.79,0.0004999999999999997
596,0.40814414620399475,0.5227791666984558,0.9,0.79,0.0004999999999999997
597,0.4077301323413849,0.5226151943206787,0.9,0.79,0.0004999999999999997
598,0.40732789039611816,0.5224083065986633,0.9,0.79,0.0004999999999999997
599,0.4069381654262543,0.5220649838447571,0.9,0.79,0.0004999999999999997
600,0.40656280517578125,0.5214806199073792,0.9,0.79,0.0004999999999999997
601,0.40620121359825134,0.5207623243331909,0.9,0.79,0.0004999999999999997
602,0.4058566689491272,0.5200400352478027,0.9,0.79,0.0004999999999999997
603,0.4055316150188446,0.5195714235305786,0.9,0.79,0.0004999999999999997
604,0.40523761510849,0.5200352072715759,0.91,0.78,0.0004999999999999997
605,0.404958039522171,0.5196072459220886,0.91,0.78,0.00039685026299204955
606,0.40465468168258667,0.5198279023170471,0.92,0.78,0.00039685026299204955
607,0.404413104057312,0.520169198513031,0.92,0.78,0.00039685026299204955
608,0.40419161319732666,0.5204463601112366,0.92,0.78,0.00039685026299204955
609,0.4039957821369171,0.5206395983695984,0.92,0.78,0.00039685026299204955
610,0.4038163721561432,0.5207804441452026,0.92,0.78,0.00039685026299204955
611,0.4036425054073334,0.5208780169487,0.92,0.78,0.00039685026299204955
612,0.4034765660762787,0.520892322063446,0.92,0.78,0.00039685026299204955
613,0.40331488847732544,0.5207528471946716,0.92,0.78,0.00039685026299204955
614,0.40315505862236023,0.5204973816871643,0.92,0.78,0.00039685026299204955
615,0.4030074179172516,0.5207666754722595,0.92,0.79,0.00039685026299204955
616,0.4028654098510742,0.5208730101585388,0.92,0.79,0.00039685026299204955
617,0.40273597836494446,0.5206477046012878,0.92,0.79,0.00039685026299204955
618,0.4026050269603729,0.5210280418395996,0.92,0.79,0.00039685026299204955
619,0.40247151255607605,0.5208471417427063,0.92,0.79,0.00039685026299204955
620,0.40233370661735535,0.5207898616790771,0.92,0.79,0.00039685026299204955
621,0.4022030532360077,0.5208975076675415,0.92,0.79,0.00039685026299204955
622,0.40207549929618835,0.5208889245986938,0.92,0.79,0.00039685026299204955
623,0.4019489288330078,0.5207969546318054,0.92,0.79,0.00039685026299204955
624,0.4018188416957855,0.5208246111869812,0.92,0.79,0.00039685026299204955
625,0.4016883075237274,0.5209276676177979,0.92,0.79,0.00039685026299204955
626,0.4015584886074066,0.5209808349609375,0.92,0.79,0.00039685026299204955
627,0.40143296122550964,0.5209540724754333,0.92,0.79,0.00039685026299204955
628,0.4013105630874634,0.5209792852401733,0.92,0.79,0.00039685026299204955
629,0.4011882543563843,0.5209571719169617,0.92,0.79,0.00039685026299204955
630,0.4010697603225708,0.5208476781845093,0.92,0.79,0.00039685026299204955
631,0.40095141530036926,0.520768404006958,0.92,0.79,0.00039685026299204955
632,0.4008343815803528,0.5206846594810486,0.92,0.79,0.00039685026299204955
633,0.4007222056388855,0.5205929279327393,0.92,0.79,0.00039685026299204955
634,0.4006115198135376,0.5204977989196777,0.92,0.79,0.00039685026299204955
635,0.40050163865089417,0.520444393157959,0.92,0.79,0.00039685026299204955
636,0.40039387345314026,0.5204097032546997,0.92,0.79,0.00039685026299204955
637,0.40028682351112366,0.5203641653060913,0.92,0.79,0.00039685026299204955
638,0.4001806676387787,0.5203260779380798,0.92,0.79,0.00039685026299204955
639,0.40007737278938293,0.5203415751457214,0.92,0.79,0.00039685026299204955
640,0.39997342228889465,0.5202502608299255,0.92,0.79,0.00039685026299204955
641,0.39987295866012573,0.5201177597045898,0.92,0.79,0.00039685026299204955
642,0.3997719883918762,0.5200063586235046,0.92,0.79,0.00039685026299204955
643,0.39967259764671326,0.5198599100112915,0.92,0.79,0.00039685026299204955
644,0.3995724022388458,0.5197107791900635,0.92,0.8,0.00039685026299204955
645,0.3994775712490082,0.5195952653884888,0.92,0.79,0.00039685026299204955
646,0.3993796408176422,0.5194689035415649,0.92,0.8,0.00039685026299204955
647,0.3992849290370941,0.5193271040916443,0.92,0.8,0.00039685026299204955
648,0.3991890251636505,0.5192165970802307,0.92,0.8,0.00039685026299204955
649,0.3990938663482666,0.5191233158111572,0.92,0.8,0.00039685026299204955
650,0.3990024924278259,0.5190054178237915,0.92,0.8,0.00039685026299204955
651,0.3989086449146271,0.5188285112380981,0.92,0.8,0.00039685026299204955
652,0.39882034063339233,0.5187036395072937,0.92,0.8,0.00039685026299204955
653,0.3987390100955963,0.5185208320617676,0.92,0.8,0.00039685026299204955
654,0.39864039421081543,0.5183603763580322,0.92,0.8,0.00039685026299204955
655,0.3985807001590729,0.5186638832092285,0.92,0.8,0.00039685026299204955
656,0.3988480865955353,0.5182127952575684,0.92,0.8,0.00039685026299204955
657,0.3985176384449005,0.5176720023155212,0.92,0.8,0.00039685026299204955
658,0.3986257314682007,0.5175468921661377,0.92,0.8,0.00039685026299204955
659,0.3983844816684723,0.5176054239273071,0.92,0.8,0.00039685026299204955
660,0.3983514904975891,0.5175384283065796,0.92,0.81,0.00039685026299204955
661,0.3982403576374054,0.5175686478614807,0.92,0.8,0.00039685026299204955
662,0.3981514275074005,0.5175185203552246,0.92,0.8,0.00039685026299204955
663,0.3980599343776703,0.5175075531005859,0.92,0.81,0.00039685026299204955
664,0.39786162972450256,0.517656683921814,0.92,0.81,0.00039685026299204955
665,0.3978569507598877,0.5175373554229736,0.92,0.81,0.00039685026299204955
666,0.39767158031463623,0.5174959897994995,0.92,0.8,0.00039685026299204955
667,0.40764087438583374,0.517564594745636,0.91,0.81,0.00039685026299204955
668,0.40746623277664185,0.5176936388015747,0.91,0.81,0.00039685026299204955
669,0.40741780400276184,0.5177971124649048,0.91,0.81,0.00039685026299204955
670,0.4072026312351227,0.5194823741912842,0.91,0.79,0.00039685026299204955
671,0.4007904827594757,0.5157349109649658,0.92,0.79,0.00039685026299204955
672,0.40403279662132263,0.5288165211677551,0.92,0.77,0.00039685026299204955
673,0.4072655737400055,0.5170181393623352,0.91,0.81,0.00039685026299204955
674,0.3998437225818634,0.5165839791297913,0.92,0.78,0.00039685026299204955
675,0.40261995792388916,0.5169357061386108,0.92,0.78,0.00039685026299204955
676,0.40237322449684143,0.5196227431297302,0.92,0.81,0.00039685026299204955
677,0.4001131057739258,0.5420300364494324,0.92,0.75,0.00039685026299204955
678,0.4032141864299774,0.5155371427536011,0.92,0.8,0.00039685026299204955
679,0.4010981321334839,0.5164578557014465,0.92,0.79,0.00039685026299204955
680,0.4009895622730255,0.5163503289222717,0.92,0.78,0.00039685026299204955
681,0.4003256559371948,0.5180539488792419,0.92,0.79,0.00039685026299204955
682,0.40003424882888794,0.5196188688278198,0.92,0.8,0.00039685026299204955
683,0.4002176523208618,0.5163547396659851,0.92,0.81,0.00039685026299204955
684,0.39909008145332336,0.5181129574775696,0.92,0.79,0.00039685026299204955
685,0.39910441637039185,0.5191118717193604,0.92,0.78,0.00039685026299204955
686,0.4000900685787201,0.5168061256408691,0.92,0.78,0.00039685026299204955
687,0.39931419491767883,0.5175569653511047,0.92,0.81,0.00039685026299204955
688,0.3992551863193512,0.5164151191711426,0.92,0.81,0.00039685026299204955
689,0.3991446793079376,0.5165366530418396,0.92,0.79,0.00039685026299204955
690,0.3990882933139801,0.5166471600532532,0.92,0.79,0.00039685026299204955
691,0.39946287870407104,0.5164751410484314,0.92,0.79,0.00039685026299204955
692,0.3991611897945404,0.5161765217781067,0.92,0.79,0.00039685026299204955
693,0.3987763226032257,0.5159435272216797,0.92,0.81,0.00039685026299204955
694,0.39883726835250854,0.5125231742858887,0.92,0.79,0.00039685026299204955
695,0.3984418511390686,0.5128387212753296,0.92,0.79,0.00039685026299204955
696,0.39857447147369385,0.5137227773666382,0.92,0.79,0.00039685026299204955
697,0.39849090576171875,0.5119947195053101,0.92,0.8,0.00039685026299204955
698,0.3981364071369171,0.510765552520752,0.92,0.82,0.00039685026299204955
699,0.3981236219406128,0.510643720626831,0.92,0.82,0.00039685026299204955
700,0.3978895843029022,0.5111293792724609,0.92,0.81,0.00039685026299204955
701,0.3978254795074463,0.5116121768951416,0.92,0.81,0.00039685026299204955
702,0.39786145091056824,0.5118255615234375,0.92,0.81,0.00039685026299204955
703,0.3976846933364868,0.5122343301773071,0.92,0.82,0.00039685026299204955
704,0.39755508303642273,0.5130521059036255,0.92,0.82,0.00039685026299204955
705,0.39752066135406494,0.5133265852928162,0.92,0.81,0.00039685026299204955
706,0.39740025997161865,0.5126141309738159,0.92,0.81,0.00031498026247371797
707,0.39738547801971436,0.5123423337936401,0.92,0.8,0.00031498026247371797
708,0.3973720073699951,0.5122091174125671,0.92,0.81,0.00031498026247371797
709,0.39726677536964417,0.5122062563896179,0.92,0.81,0.00031498026247371797
710,0.3971911668777466,0.5121306777000427,0.92,0.81,0.00031498026247371797
711,0.3971749246120453,0.511765718460083,0.92,0.82,0.00031498026247371797
712,0.3971303701400757,0.5112598538398743,0.92,0.82,0.00031498026247371797
713,0.3970813453197479,0.5109401941299438,0.92,0.82,0.00031498026247371797
714,0.3970520496368408,0.5109738707542419,0.92,0.82,0.00031498026247371797
715,0.39699187874794006,0.511308491230011,0.92,0.81,0.00031498026247371797
716,0.3969159722328186,0.5116983652114868,0.92,0.81,0.00031498026247371797
717,0.3968789577484131,0.5118959546089172,0.92,0.81,0.00031498026247371797
718,0.39685145020484924,0.5118129849433899,0.92,0.81,0.00031498026247371797
719,0.396799236536026,0.5115777850151062,0.92,0.81,0.00031498026247371797
720,0.39675194025039673,0.511339008808136,0.92,0.81,0.00031498026247371797
721,0.39670902490615845,0.5111473202705383,0.92,0.81,0.00031498026247371797
722,0.39665329456329346,0.51094651222229,0.92,0.82,0.00031498026247371797
723,0.3966081142425537,0.5106973052024841,0.92,0.82,0.00031498026247371797
724,0.3965783715248108,0.5104649066925049,0.92,0.82,0.00031498026247371797
725,0.3965393006801605,0.5103232860565186,0.92,0.82,0.00031498026247371797
726,0.3964942991733551,0.5103017687797546,0.92,0.82,0.00031498026247371797
727,0.39645642042160034,0.5103656053543091,0.92,0.82,0.00031498026247371797
728,0.39641472697257996,0.5104658007621765,0.92,0.82,0.00031498026247371797
729,0.39637187123298645,0.5105155110359192,0.92,0.82,0.00031498026247371797
730,0.3963414430618286,0.5105187892913818,0.92,0.82,0.00031498026247371797
731,0.39630764722824097,0.5104668736457825,0.92,0.82,0.00031498026247371797
732,0.3962673842906952,0.5103300213813782,0.92,0.82,0.00031498026247371797
733,0.3962310552597046,0.5101379752159119,0.92,0.82,0.00031498026247371797
734,0.3961934745311737,0.5099171996116638,0.92,0.82,0.00031498026247371797
735,0.3961542844772339,0.5097320675849915,0.92,0.82,0.00031498026247371797
736,0.3961213231086731,0.5096369385719299,0.92,0.82,0.00031498026247371797
737,0.3960872292518616,0.5096365213394165,0.92,0.82,0.00031498026247371797
738,0.3960491418838501,0.5096905827522278,0.92,0.82,0.00031498026247371797
739,0.3960144817829132,0.509782612323761,0.92,0.82,0.00031498026247371797
740,0.39597761631011963,0.5099074840545654,0.92,0.82,0.00031498026247371797
741,0.3959396481513977,0.510028064250946,0.92,0.82,0.00031498026247371797
742,0.39590564370155334,0.5101238489151001,0.92,0.82,0.00031498026247371797
743,0.3958706557750702,0.5101633667945862,0.92,0.82,0.00031498026247371797
744,0.3958348333835602,0.5101544260978699,0.92,0.81,0.00031498026247371797
745,0.3958004415035248,0.5101061463356018,0.92,0.81,0.00031498026247371797
746,0.3957656919956207,0.510043740272522,0.92,0.82,0.00031498026247371797
747,0.3957287073135376,0.509983241558075,0.92,0.82,0.00031498026247371797
748,0.39569512009620667,0.5099328756332397,0.92,0.82,0.00031498026247371797
749,0.39566096663475037,0.5098943114280701,0.92,0.82,0.00031498026247371797
750,0.395626038312912,0.5098808407783508,0.92,0.82,0.00031498026247371797
751,0.3955916464328766,0.5099062323570251,0.92,0.81,0.00031498026247371797
752,0.3955569863319397,0.5099493265151978,0.92,0.81,0.00031498026247371797
753,0.3955216705799103,0.5099818706512451,0.92,0.81,0.00031498026247371797
754,0.3954882323741913,0.5099913477897644,0.92,0.81,0.00031498026247371797
755,0.39545413851737976,0.5099611282348633,0.92,0.81,0.00031498026247371797
756,0.3954199254512787,0.5099020600318909,0.92,0.81,0.00031498026247371797
757,0.39538559317588806,0.5098342895507812,0.92,0.81,0.00031498026247371797
758,0.39535096287727356,0.5097724795341492,0.92,0.81,0.00031498026247371797
759,0.3953168988227844,0.5097039937973022,0.92,0.81,0.00031498026247371797
760,0.3952827453613281,0.5096348524093628,0.92,0.81,0.00031498026247371797
761,0.39524850249290466,0.5095723867416382,0.92,0.81,0.00031498026247371797
762,0.3952147364616394,0.5095182657241821,0.92,0.81,0.00031498026247371797
763,0.3951803147792816,0.5094946026802063,0.92,0.81,0.00031498026247371797
764,0.39514610171318054,0.5094879865646362,0.92,0.81,0.00031498026247371797
765,0.39511215686798096,0.5094721913337708,0.92,0.81,0.00031498026247371797
766,0.39507797360420227,0.5094377398490906,0.92,0.81,0.00031498026247371797
767,0.3950445055961609,0.5093930959701538,0.92,0.81,0.00031498026247371797
768,0.39501017332077026,0.5093427896499634,0.92,0.81,0.00031498026247371797
769,0.39497649669647217,0.5092873573303223,0.92,0.81,0.00031498026247371797
770,0.39494210481643677,0.5092339515686035,0.92,0.81,0.00031498026247371797
771,0.39490699768066406,0.5091775059700012,0.92,0.81,0.00031498026247371797
772,0.39487379789352417,0.5091134905815125,0.92,0.81,0.00031498026247371797
773,0.3948398530483246,0.5090592503547668,0.92,0.81,0.00031498026247371797
774,0.39480534195899963,0.5090240240097046,0.92,0.81,0.00031498026247371797
775,0.3947719633579254,0.5090025663375854,0.92,0.81,0.00031498026247371797
776,0.3947382867336273,0.5089848041534424,0.92,0.81,0.00031498026247371797
777,0.3947035074234009,0.5089638233184814,0.92,0.81,0.00031498026247371797
778,0.39466992020606995,0.5089314579963684,0.92,0.81,0.00031498026247371797
779,0.3946359157562256,0.5088883638381958,0.92,0.81,0.00031498026247371797
780,0.3946012556552887,0.5088554620742798,0.92,0.81,0.00031498026247371797
781,0.3945680558681488,0.5088146328926086,0.92,0.81,0.00031498026247371797
782,0.39453381299972534,0.5087741613388062,0.92,0.81,0.00031498026247371797
783,0.39449936151504517,0.5087267160415649,0.92,0.81,0.00031498026247371797
784,0.39446547627449036,0.5086778402328491,0.92,0.81,0.00031498026247371797
785,0.39443162083625793,0.5086439251899719,0.92,0.81,0.00031498026247371797
786,0.39439743757247925,0.5086188912391663,0.92,0.81,0.00031498026247371797
787,0.39436301589012146,0.508596658706665,0.92,0.81,0.00031498026247371797
788,0.3943288028240204,0.5085728168487549,0.92,0.81,0.00031498026247371797
789,0.39429527521133423,0.5085501074790955,0.92,0.81,0.00031498026247371797
790,0.3942602574825287,0.5085253119468689,0.92,0.81,0.00031498026247371797
791,0.3942260444164276,0.5085004568099976,0.92,0.81,0.00031498026247371797
792,0.39419156312942505,0.5084693431854248,0.92,0.81,0.00031498026247371797
793,0.39415714144706726,0.5084366798400879,0.92,0.81,0.00031498026247371797
794,0.3941231071949005,0.5083951354026794,0.92,0.81,0.00031498026247371797
795,0.39408862590789795,0.5083581805229187,0.92,0.81,0.00031498026247371797
796,0.394054114818573,0.5083224773406982,0.92,0.81,0.00031498026247371797
797,0.3940189480781555,0.5083010196685791,0.92,0.81,0.00031498026247371797
798,0.39398518204689026,0.5082760453224182,0.92,0.81,0.00031498026247371797
799,0.39395007491111755,0.5082504153251648,0.92,0.81,0.00031498026247371797
800,0.39391520619392395,0.5082322955131531,0.92,0.81,0.00031498026247371797
801,0.3938802480697632,0.5082071423530579,0.92,0.81,0.00031498026247371797
802,0.39384564757347107,0.5081822872161865,0.92,0.81,0.00031498026247371797
803,0.3938106298446655,0.5081533789634705,0.92,0.81,0.00031498026247371797
804,0.3937755227088928,0.5081226825714111,0.92,0.81,0.00031498026247371797
805,0.39374029636383057,0.5080881714820862,0.92,0.81,0.00031498026247371797
806,0.3937050700187683,0.5080620050430298,0.92,0.81,0.00031498026247371797
807,0.39366963505744934,0.5080347061157227,0.92,0.81,0.0002499999999999997
808,0.3936339318752289,0.5080134868621826,0.92,0.81,0.0002499999999999997
809,0.39360591769218445,0.5079982876777649,0.92,0.81,0.0002499999999999997
810,0.39357781410217285,0.507977306842804,0.92,0.81,0.0002499999999999997
811,0.39354923367500305,0.5079574584960938,0.92,0.81,0.0002499999999999997
812,0.3935210108757019,0.5079402327537537,0.92,0.81,0.0002499999999999997
813,0.3934924304485321,0.5079248547554016,0.92,0.81,0.0002499999999999997
814,0.3934643268585205,0.5079007148742676,0.92,0.81,0.0002499999999999997
815,0.39343565702438354,0.5078835487365723,0.92,0.81,0.0002499999999999997
816,0.3934062123298645,0.5078628063201904,0.92,0.81,0.0002499999999999997
817,0.39337772130966187,0.5078415870666504,0.92,0.81,0.0002499999999999997
818,0.3933488130569458,0.5078218579292297,0.92,0.81,0.0002499999999999997
819,0.393319696187973,0.5077986717224121,0.92,0.81,0.0002499999999999997
820,0.39329054951667786,0.5077833533287048,0.92,0.81,0.0002499999999999997
821,0.39326152205467224,0.5077664256095886,0.92,0.81,0.0002499999999999997
822,0.3932322561740875,0.5077437162399292,0.92,0.81,0.0002499999999999997
823,0.39320307970046997,0.5077240467071533,0.92,0.81,0.0002499999999999997
824,0.3931736350059509,0.5077022910118103,0.92,0.81,0.0002499999999999997
825,0.39314377307891846,0.5076796412467957,0.92,0.81,0.0002499999999999997
826,0.3931134045124054,0.5076610445976257,0.92,0.81,0.0002499999999999997
827,0.39308375120162964,0.5076467394828796,0.92,0.81,0.0002499999999999997
828,0.39305415749549866,0.5076302289962769,0.92,0.81,0.0002499999999999997
829,0.39302387833595276,0.5076122879981995,0.92,0.81,0.0002499999999999997
830,0.3929940164089203,0.5075902342796326,0.92,0.81,0.0002499999999999997
831,0.39296385645866394,0.5075622797012329,0.92,0.81,0.0002499999999999997
832,0.3929332494735718,0.5075408816337585,0.92,0.81,0.0002499999999999997
833,0.3929029107093811,0.5075158476829529,0.92,0.81,0.0002499999999999997
834,0.3928719460964203,0.507492184638977,0.92,0.81,0.0002499999999999997
835,0.3928414285182953,0.5074688792228699,0.92,0.81,0.0002499999999999997
836,0.39281001687049866,0.5074476003646851,0.92,0.81,0.0002499999999999997
837,0.39277923107147217,0.5074255466461182,0.92,0.81,0.0002499999999999997
838,0.3927478492259979,0.5074012875556946,0.92,0.81,0.0002499999999999997
839,0.39271610975265503,0.5073772072792053,0.92,0.81,0.0002499999999999997
840,0.3926849067211151,0.5073617696762085,0.92,0.81,0.0002499999999999997
841,0.3926527798175812,0.5073356628417969,0.92,0.81,0.0002499999999999997
842,0.39262115955352783,0.5073043704032898,0.92,0.81,0.0002499999999999997
843,0.39258915185928345,0.5072746872901917,0.92,0.81,0.0002499999999999997
844,0.3925575315952301,0.5072483420372009,0.92,0.81,0.0002499999999999997
845,0.39252394437789917,0.5072152614593506,0.92,0.81,0.0002499999999999997
846,0.39249178767204285,0.5071861743927002,0.92,0.81,0.0002499999999999997
847,0.3924597203731537,0.5071572661399841,0.92,0.81,0.0002499999999999997
848,0.39242619276046753,0.5071285367012024,0.92,0.81,0.0002499999999999997
849,0.39239251613616943,0.5070992708206177,0.92,0.81,0.0002499999999999997
850,0.39235955476760864,0.5070667862892151,0.92,0.81,0.0002499999999999997
851,0.3923259377479553,0.507034182548523,0.92,0.81,0.0002499999999999997
852,0.392292320728302,0.5070059299468994,0.92,0.81,0.0002499999999999997
853,0.3922581970691681,0.5069729089736938,0.92,0.81,0.0002499999999999997
854,0.3922240734100342,0.5069338083267212,0.92,0.81,0.0002499999999999997
855,0.39219000935554504,0.5068930983543396,0.92,0.81,0.0002499999999999997
856,0.39215511083602905,0.5068552494049072,0.92,0.81,0.0002499999999999997
857,0.3921199142932892,0.5068117380142212,0.92,0.81,0.0002499999999999997
858,0.39208510518074036,0.5067692995071411,0.92,0.81,0.0002499999999999997
859,0.39205047488212585,0.5067312717437744,0.92,0.81,0.0002499999999999997
860,0.3920139968395233,0.5066893696784973,0.92,0.81,0.0002499999999999997
861,0.3919782340526581,0.5066437721252441,0.92,0.81,0.0002499999999999997
862,0.3919421434402466,0.5066052675247192,0.92,0.81,0.0002499999999999997
863,0.3919055461883545,0.5065582394599915,0.92,0.81,0.0002499999999999997
864,0.3918696641921997,0.5065086483955383,0.92,0.81,0.0002499999999999997
865,0.3918319642543793,0.5064511299133301,0.92,0.81,0.0002499999999999997
866,0.3917943835258484,0.5063899755477905,0.92,0.81,0.0002499999999999997
867,0.39175793528556824,0.5063334107398987,0.92,0.81,0.0002499999999999997
868,0.3917197287082672,0.5062819123268127,0.92,0.81,0.0002499999999999997
869,0.3916812539100647,0.5062265992164612,0.92,0.81,0.0002499999999999997
870,0.39164313673973083,0.506168007850647,0.92,0.81,0.0002499999999999997
871,0.3916042447090149,0.5061131119728088,0.92,0.81,0.0002499999999999997
872,0.39156535267829895,0.506050705909729,0.92,0.81,0.0002499999999999997
873,0.3915256857872009,0.5059841275215149,0.92,0.81,0.0002499999999999997
874,0.39148688316345215,0.50591641664505,0.92,0.81,0.0002499999999999997
875,0.39144641160964966,0.5058348178863525,0.92,0.81,0.0002499999999999997
876,0.39140594005584717,0.5057564973831177,0.92,0.81,0.0002499999999999997
877,0.3913652300834656,0.5056835412979126,0.92,0.81,0.0002499999999999997
878,0.39132368564605713,0.5056149363517761,0.92,0.81,0.0002499999999999997
879,0.3912828862667084,0.5055395364761353,0.92,0.81,0.0002499999999999997
880,0.39124011993408203,0.5054514408111572,0.92,0.81,0.0002499999999999997
881,0.3911982774734497,0.5053657293319702,0.92,0.81,0.0002499999999999997
882,0.39115607738494873,0.5052797198295593,0.92,0.81,0.0002499999999999997
883,0.391111820936203,0.505182683467865,0.92,0.81,0.0002499999999999997
884,0.39106905460357666,0.5050848722457886,0.92,0.81,0.0002499999999999997
885,0.39102408289909363,0.5049899816513062,0.92,0.81,0.0002499999999999997
886,0.3909800350666046,0.5048898458480835,0.92,0.81,0.0002499999999999997
887,0.39093509316444397,0.5047985315322876,0.92,0.81,0.0002499999999999997
888,0.39088931679725647,0.5046926140785217,0.92,0.81,0.0002499999999999997
889,0.3908441960811615,0.504574179649353,0.92,0.81,0.0002499999999999997
890,0.39079734683036804,0.5044476985931396,0.92,0.81,0.0002499999999999997
891,0.3907507658004761,0.5043342113494873,0.92,0.81,0.0002499999999999997
892,0.3907027542591095,0.5042160153388977,0.92,0.81,0.0002499999999999997
893,0.3906554877758026,0.5040795207023621,0.92,0.81,0.0002499999999999997
894,0.39060696959495544,0.5039545297622681,0.92,0.81,0.0002499999999999997
895,0.39055728912353516,0.5038284063339233,0.92,0.81,0.0002499999999999997
896,0.39050766825675964,0.5037058591842651,0.92,0.81,0.0002499999999999997
897,0.39045801758766174,0.5035628080368042,0.92,0.81,0.0002499999999999997
898,0.39040684700012207,0.5033894777297974,0.92,0.81,0.0002499999999999997
899,0.39035582542419434,0.5032341480255127,0.92,0.81,0.0002499999999999997
900,0.39030399918556213,0.5030861496925354,0.92,0.81,0.0002499999999999997
901,0.390250563621521,0.502943217754364,0.92,0.8,0.0002499999999999997
902,0.39019760489463806,0.5027846097946167,0.92,0.8,0.0002499999999999997
903,0.3901439607143402,0.5026149749755859,0.92,0.8,0.0002499999999999997
904,0.3900894820690155,0.5024517178535461,0.92,0.8,0.0002499999999999997
905,0.3900332748889923,0.502271831035614,0.92,0.8,0.0002499999999999997
906,0.38997790217399597,0.5020798444747925,0.92,0.8,0.0002499999999999997
907,0.3899213671684265,0.5019127130508423,0.92,0.8,0.0002499999999999997
908,0.3898637294769287,0.5017575621604919,0.92,0.8,0.0002499999999999997
909,0.38980498909950256,0.5015749931335449,0.92,0.8,0.0002499999999999997
910,0.38974639773368835,0.5013675093650818,0.92,0.8,0.0002499999999999997
911,0.3896864354610443,0.5011857748031616,0.92,0.8,0.0002499999999999997
912,0.38962528109550476,0.501011848449707,0.92,0.8,0.0002499999999999997
913,0.3895648717880249,0.5008288621902466,0.92,0.8,0.0002499999999999997
914,0.3895023465156555,0.5006347298622131,0.92,0.8,0.0002499999999999997
915,0.3894389867782593,0.500458300113678,0.92,0.8,0.0002499999999999997
916,0.3893762528896332,0.5002567172050476,0.92,0.8,0.0002499999999999997
917,0.3893113434314728,0.5000358819961548,0.92,0.8,0.0002499999999999997
918,0.3892453908920288,0.49979713559150696,0.92,0.8,0.0002499999999999997
919,0.38918042182922363,0.49959492683410645,0.92,0.8,0.0002499999999999997
920,0.38911351561546326,0.4993526041507721,0.93,0.8,0.0002499999999999997
921,0.38904717564582825,0.49902820587158203,0.93,0.8,0.0002499999999999997
922,0.3889787197113037,0.49868860840797424,0.93,0.81,0.0002499999999999997
923,0.38891005516052246,0.4983990490436554,0.93,0.81,0.0002499999999999997
924,0.3888402283191681,0.4981346130371094,0.93,0.81,0.0002499999999999997
925,0.3887706995010376,0.49783554673194885,0.93,0.81,0.0002499999999999997
926,0.3886995315551758,0.49760928750038147,0.93,0.81,0.0002499999999999997
927,0.3886270821094513,0.49740925431251526,0.93,0.81,0.0002499999999999997
928,0.38855496048927307,0.49726295471191406,0.93,0.81,0.0002499999999999997
929,0.38848185539245605,0.4971395432949066,0.93,0.81,0.0002499999999999997
930,0.38840770721435547,0.4969694912433624,0.93,0.81,0.0002499999999999997
931,0.3883328139781952,0.4967699348926544,0.93,0.81,0.0002499999999999997
932,0.3882577419281006,0.49667948484420776,0.93,0.81,0.0002499999999999997
933,0.3881820738315582,0.49642375111579895,0.93,0.81,0.0002499999999999997
934,0.3881046772003174,0.4962335228919983,0.93,0.81,0.0002499999999999997
935,0.38802623748779297,0.49599868059158325,0.93,0.81,0.0002499999999999997
936,0.38794684410095215,0.49575531482696533,0.93,0.81,0.0002499999999999997
937,0.3878672122955322,0.4955524802207947,0.93,0.81,0.0002499999999999997
938,0.3877873718738556,0.49527180194854736,0.93,0.81,0.0002499999999999997
939,0.3877061903476715,0.4952242374420166,0.93,0.81,0.0002499999999999997
940,0.3876228332519531,0.49499744176864624,0.93,0.81,0.0002499999999999997
941,0.3875385522842407,0.49492865800857544,0.93,0.81,0.0002499999999999997
942,0.3874545991420746,0.49480828642845154,0.93,0.81,0.0002499999999999997
943,0.3873691260814667,0.49476540088653564,0.93,0.81,0.0002499999999999997
944,0.38728177547454834,0.49460098147392273,0.93,0.81,0.0002499999999999997
945,0.3871939480304718,0.4946523904800415,0.93,0.81,0.0002499999999999997
946,0.38710784912109375,0.49428489804267883,0.93,0.81,0.0002499999999999997
947,0.38702622056007385,0.4947578012943268,0.93,0.81,0.0002499999999999997
948,0.38697123527526855,0.49363431334495544,0.93,0.81,0.0002499999999999997
949,0.38703399896621704,0.49663639068603516,0.93,0.8,0.0002499999999999997
950,0.3889041543006897,0.4889996349811554,0.93,0.83,0.0002499999999999997
951,0.42800989747047424,0.48907235264778137,0.88,0.83,0.0002499999999999997
952,0.428132027387619,0.49522390961647034,0.88,0.81,0.0002499999999999997
953,0.38690051436424255,0.5035645961761475,0.93,0.8,0.0002499999999999997
954,0.40356361865997314,0.49802497029304504,0.91,0.8,0.0002499999999999997
955,0.3975774347782135,0.48979291319847107,0.93,0.83,0.0002499999999999997
956,0.410842627286911,0.49026355147361755,0.9,0.82,0.0002499999999999997
957,0.4195145070552826,0.4905277192592621,0.89,0.82,0.0002499999999999997
958,0.41322025656700134,0.49288925528526306,0.9,0.82,0.0002499999999999997
959,0.3883705139160156,0.5095744132995605,0.92,0.79,0.0002499999999999997
960,0.3999367654323578,0.5093522667884827,0.91,0.8,0.0002499999999999997
961,0.40072715282440186,0.49821293354034424,0.92,0.82,0.0002499999999999997
962,0.40374472737312317,0.49268394708633423,0.91,0.83,0.0002499999999999997
963,0.3936185836791992,0.49451130628585815,0.91,0.81,0.0002499999999999997
964,0.4149705171585083,0.4897345006465912,0.9,0.83,0.0002499999999999997
965,0.439926415681839,0.48911717534065247,0.87,0.83,0.0002499999999999997
966,0.44303834438323975,0.48977768421173096,0.86,0.82,0.0002499999999999997
967,0.43598854541778564,0.49689361453056335,0.88,0.82,0.0002499999999999997
968,0.4017879366874695,0.5303103923797607,0.91,0.78,0.0002499999999999997
969,0.40155482292175293,0.5108287930488586,0.91,0.8,0.0002499999999999997
970,0.4131375253200531,0.5108585953712463,0.9,0.8,0.0002499999999999997
971,0.4088119566440582,0.4993983507156372,0.9,0.82,0.0002499999999999997
972,0.39990219473838806,0.4937323331832886,0.91,0.81,0.0002499999999999997
973,0.39848649501800537,0.49461570382118225,0.92,0.82,0.0002499999999999997
974,0.399433970451355,0.49661919474601746,0.91,0.82,0.0002499999999999997
975,0.3998854458332062,0.49494171142578125,0.91,0.81,0.0002499999999999997
976,0.39491844177246094,0.5047564506530762,0.92,0.81,0.0002499999999999997
977,0.4035227298736572,0.5107868313789368,0.91,0.8,0.0002499999999999997
978,0.4054745137691498,0.5081959366798401,0.9,0.81,0.0002499999999999997
979,0.4026564061641693,0.4984590411186218,0.91,0.81,0.0002499999999999997
980,0.4014659523963928,0.48932474851608276,0.91,0.83,0.0002499999999999997
981,0.404084712266922,0.4942866861820221,0.91,0.82,0.0002499999999999997
982,0.40222012996673584,0.5079319477081299,0.91,0.8,0.0002499999999999997
983,0.4021283686161041,0.5144399404525757,0.91,0.79,0.0002499999999999997
984,0.4039122462272644,0.5115097165107727,0.91,0.8,0.0002499999999999997
985,0.4029640555381775,0.5013241767883301,0.91,0.8,0.0002499999999999997
986,0.40161120891571045,0.49179619550704956,0.91,0.83,0.0002499999999999997
987,0.4024263620376587,0.491495817899704,0.91,0.83,0.0002499999999999997
988,0.4019612967967987,0.5074653625488281,0.91,0.8,0.0002499999999999997
989,0.4011317789554596,0.514021098613739,0.91,0.8,0.0002499999999999997
990,0.4011179804801941,0.5255410075187683,0.91,0.78,0.0002499999999999997
991,0.4013366401195526,0.5267227292060852,0.91,0.78,0.0002499999999999997
992,0.40130913257598877,0.522689163684845,0.91,0.79,0.0002499999999999997
993,0.40079161524772644,0.5098888874053955,0.91,0.8,0.0002499999999999997
994,0.40050414204597473,0.4960803985595703,0.91,0.81,0.0002499999999999997
995,0.40040695667266846,0.4936997890472412,0.91,0.83,0.0002499999999999997
996,0.4003283381462097,0.4928865432739258,0.91,0.83,0.0002499999999999997
997,0.4001581072807312,0.4934863746166229,0.91,0.83,0.0002499999999999997
998,0.399856835603714,0.50105220079422,0.91,0.81,0.0002499999999999997
999,0.39943450689315796,0.5062640905380249,0.91,0.81,0.0002499999999999997
1000,0.3991444706916809,0.5068527460098267,0.91,0.8,0.0002499999999999997
1001,0.3989117443561554,0.5047054886817932,0.91,0.8,0.0002499999999999997
1002,0.3984406590461731,0.49537527561187744,0.91,0.81,0.0002499999999999997
1003,0.3983082175254822,0.49326857924461365,0.91,0.81,0.0002499999999999997
1004,0.39823001623153687,0.49457547068595886,0.92,0.81,0.0002499999999999997
1005,0.39814117550849915,0.49890759587287903,0.92,0.8,0.0002499999999999997
1006,0.3981092572212219,0.49885958433151245,0.92,0.8,0.0002499999999999997
1007,0.3979271650314331,0.49325811862945557,0.92,0.81,0.0002499999999999997
1008,0.39756569266319275,0.4908725321292877,0.92,0.81,0.0002499999999999997
1009,0.39729171991348267,0.4903821647167206,0.92,0.82,0.0002499999999999997
1010,0.39708247780799866,0.4911375939846039,0.92,0.82,0.0002499999999999997
1011,0.39689210057258606,0.49708792567253113,0.92,0.81,0.0002499999999999997
1012,0.39694297313690186,0.4891970753669739,0.92,0.82,0.0002499999999999997
1013,0.3967444598674774,0.4876032769680023,0.92,0.83,0.0002499999999999997
1014,0.3966972231864929,0.48828327655792236,0.92,0.82,0.0002499999999999997
1015,0.39642950892448425,0.4904005825519562,0.92,0.82,0.0002499999999999997
1016,0.39626774191856384,0.4916512668132782,0.92,0.82,0.0002499999999999997
1017,0.3963368535041809,0.4903433918952942,0.92,0.82,0.0002499999999999997
1018,0.3961530029773712,0.48676106333732605,0.92,0.82,0.0002499999999999997
1019,0.39600232243537903,0.4839315414428711,0.92,0.83,0.0002499999999999997
1020,0.3959956467151642,0.48358169198036194,0.92,0.83,0.0002499999999999997
1021,0.39591071009635925,0.4853818118572235,0.92,0.82,0.0002499999999999997
1022,0.3957332670688629,0.4882163107395172,0.92,0.82,0.0002499999999999997
1023,0.39563697576522827,0.4899010956287384,0.92,0.82,0.0002499999999999997
1024,0.3955763578414917,0.4895269274711609,0.92,0.82,0.0002499999999999997
1025,0.3954153060913086,0.48799437284469604,0.92,0.82,0.0002499999999999997
1026,0.3952615261077881,0.48691853880882263,0.92,0.82,0.0002499999999999997
1027,0.3951647877693176,0.4871554672718048,0.92,0.82,0.0002499999999999997
1028,0.39504700899124146,0.48868951201438904,0.92,0.81,0.0002499999999999997
1029,0.3948878049850464,0.4907001852989197,0.92,0.81,0.0002499999999999997
1030,0.39474353194236755,0.4920031726360321,0.92,0.81,0.0002499999999999997
1031,0.39463135600090027,0.4921303689479828,0.92,0.81,0.0002499999999999997
1032,0.39449676871299744,0.49129214882850647,0.92,0.81,0.0002499999999999997
1033,0.39433538913726807,0.4899230897426605,0.92,0.81,0.0002499999999999997
1034,0.39418572187423706,0.48868924379348755,0.92,0.81,0.0002499999999999997
1035,0.39404189586639404,0.48793795704841614,0.92,0.81,0.0002499999999999997
1036,0.3938772976398468,0.4875977635383606,0.92,0.81,0.0002499999999999997
1037,0.3936889171600342,0.48729899525642395,0.92,0.81,0.0002499999999999997
1038,0.39346539974212646,0.4864661693572998,0.92,0.81,0.0002499999999999997
1039,0.3931489884853363,0.48462408781051636,0.92,0.82,0.0002499999999999997
1040,0.398998498916626,0.6155054569244385,0.91,0.68,0.0002499999999999997
1041,0.6179764270782471,0.5193418264389038,0.68,0.79,0.0002499999999999997
1042,0.4204980134963989,0.506039559841156,0.89,0.81,0.0002499999999999997
1043,0.47252655029296875,0.549599289894104,0.84,0.75,0.0002499999999999997
1044,0.546105682849884,0.5882556438446045,0.75,0.72,0.0002499999999999997
1045,0.5495749115943909,0.6339847445487976,0.75,0.65,0.0002499999999999997
1046,0.5558987855911255,0.6458475589752197,0.75,0.65,0.0002499999999999997
1047,0.577431857585907,0.634903073310852,0.72,0.66,0.0002499999999999997
1048,0.5731465816497803,0.5924743413925171,0.72,0.71,0.0002499999999999997
1049,0.5566827654838562,0.609628438949585,0.73,0.69,0.0002499999999999997
1050,0.5472368597984314,0.6181411743164062,0.76,0.68,0.0002499999999999997
1051,0.5596444606781006,0.6155351996421814,0.73,0.68,0.0002499999999999997
1052,0.5615851879119873,0.613405168056488,0.75,0.69,0.0002499999999999997
1053,0.5617932677268982,0.6029006838798523,0.75,0.7,0.0002499999999999997
1054,0.5617538690567017,0.5917900204658508,0.76,0.72,0.00019842513149602464
1055,0.5589781999588013,0.5978973507881165,0.76,0.71,0.00019842513149602464
1056,0.5514717698097229,0.5892722606658936,0.75,0.72,0.00019842513149602464
1057,0.5458474159240723,0.5796274542808533,0.75,0.72,0.00019842513149602464
1058,0.5425472259521484,0.5796465873718262,0.77,0.72,0.00019842513149602464
1059,0.5485998392105103,0.5775114297866821,0.75,0.72,0.00019842513149602464
1060,0.548509955406189,0.5754104852676392,0.75,0.73,0.00019842513149602464
1061,0.5482150912284851,0.5745148658752441,0.75,0.73,0.00019842513149602464
1062,0.5478973984718323,0.5743964910507202,0.75,0.73,0.00019842513149602464
1063,0.5475594401359558,0.5749348998069763,0.75,0.73,0.00019842513149602464
1064,0.5471813678741455,0.5767526030540466,0.75,0.73,0.00019842513149602464
1065,0.5467277765274048,0.581643283367157,0.75,0.71,0.00019842513149602464
1066,0.5454404950141907,0.587329626083374,0.76,0.71,0.00019842513149602464
1067,0.527370274066925,0.5953364968299866,0.78,0.7,0.00019842513149602464
1068,0.5414591431617737,0.5961092114448547,0.76,0.7,0.00019842513149602464
1069,0.550125241279602,0.6027271151542664,0.76,0.72,0.00019842513149602464
1070,0.5925792455673218,0.5959721207618713,0.71,0.71,0.00019842513149602464
1071,0.5441166162490845,0.5968093276023865,0.75,0.71,0.00019842513149602464
1072,0.5379109382629395,0.5958898663520813,0.76,0.7,0.00019842513149602464
1073,0.5178452730178833,0.5774711966514587,0.79,0.72,0.00019842513149602464
1074,0.526077926158905,0.6952637434005737,0.77,0.6,0.00019842513149602464
1075,0.7254087328910828,0.7304877638816833,0.57,0.57,0.00019842513149602464
1076,0.7361834645271301,0.7570944428443909,0.55,0.54,0.00019842513149602464
1077,0.7184584140777588,0.761165976524353,0.57,0.55,0.00019842513149602464
1078,0.717398464679718,0.5779855251312256,0.58,0.73,0.00019842513149602464
1079,0.5389661192893982,0.5337375998497009,0.75,0.77,0.00019842513149602464
1080,0.5192577838897705,0.5476094484329224,0.8,0.76,0.00019842513149602464
1081,0.5505701303482056,0.5923519730567932,0.76,0.71,0.00019842513149602464
1082,0.5689451694488525,0.6090668439865112,0.74,0.7,0.00019842513149602464
1083,0.574711263179779,0.6143693923950195,0.74,0.69,0.00019842513149602464
1084,0.5773108601570129,0.6262804269790649,0.74,0.67,0.00019842513149602464
1085,0.5861129760742188,0.6258261799812317,0.73,0.67,0.00019842513149602464
1086,0.5888407826423645,0.6125751733779907,0.72,0.7,0.00019842513149602464
1087,0.5911183953285217,0.6070888042449951,0.72,0.71,0.00019842513149602464
1088,0.5927306413650513,0.6047022938728333,0.72,0.7,0.00019842513149602464
1089,0.5932906270027161,0.5994359850883484,0.72,0.71,0.00019842513149602464
1090,0.5910469889640808,0.5930111408233643,0.72,0.72,0.00019842513149602464
1091,0.5856993198394775,0.5939581394195557,0.72,0.72,0.00019842513149602464
1092,0.5823440551757812,0.5944003462791443,0.72,0.72,0.00019842513149602464
1093,0.5731230974197388,0.5982128381729126,0.74,0.72,0.00019842513149602464
1094,0.5545623898506165,0.6131264567375183,0.76,0.69,0.00019842513149602464
1095,0.550774335861206,0.6288099884986877,0.77,0.66,0.00019842513149602464
1096,0.5483570694923401,0.6346302628517151,0.76,0.67,0.00019842513149602464
1097,0.5490512847900391,0.6335306763648987,0.76,0.66,0.00019842513149602464
1098,0.5474984645843506,0.6253421306610107,0.76,0.67,0.00019842513149602464
1099,0.5433683395385742,0.6046470403671265,0.76,0.69,0.00019842513149602464
1100,0.5302991271018982,0.5729622840881348,0.78,0.73,0.00019842513149602464
1101,0.5258643627166748,0.5614134669303894,0.79,0.76,0.00019842513149602464
1102,0.5295413732528687,0.5577644109725952,0.79,0.77,0.00019842513149602464
1103,0.5294263958930969,0.5571246147155762,0.79,0.77,0.00019842513149602464
1104,0.5212584137916565,0.5639562606811523,0.79,0.76,0.00019842513149602464
1105,0.5166442394256592,0.5742114186286926,0.8,0.74,0.00019842513149602464
1106,0.5172119736671448,0.5789211392402649,0.8,0.73,0.00019842513149602464
1107,0.5161498785018921,0.5692060589790344,0.79,0.73,0.00019842513149602464
1108,0.5092971324920654,0.5578084588050842,0.79,0.76,0.00019842513149602464
1109,0.4977465867996216,0.5522134900093079,0.81,0.77,0.00019842513149602464
1110,0.49910736083984375,0.5474643707275391,0.82,0.77,0.00019842513149602464
1111,0.48901206254959106,0.5516275763511658,0.81,0.75,0.00019842513149602464
1112,0.4714687764644623,0.540984034538269,0.83,0.76,0.00019842513149602464
1113,0.4548856019973755,0.5364357233047485,0.85,0.76,0.00019842513149602464
1114,0.4371640682220459,0.5245298743247986,0.87,0.76,0.00019842513149602464
1115,0.41071397066116333,0.5175113677978516,0.91,0.8,0.00019842513149602464
1116,0.4096623361110687,0.5169870853424072,0.9,0.8,0.00019842513149602464
1117,0.41972237825393677,0.517818033695221,0.89,0.79,0.00019842513149602464
1118,0.4326689541339874,0.5171818733215332,0.88,0.79,0.00019842513149602464
1119,0.43424782156944275,0.5154268741607666,0.87,0.8,0.00019842513149602464
1120,0.43196600675582886,0.5142967700958252,0.86,0.79,0.00019842513149602464
1121,0.42797473073005676,0.5146406292915344,0.88,0.79,0.00019842513149602464
1122,0.4327145516872406,0.5147203207015991,0.88,0.79,0.00019842513149602464
1123,0.4224117398262024,0.5147092342376709,0.89,0.79,0.00019842513149602464
1124,0.4122698903083801,0.5183683037757874,0.9,0.8,0.00019842513149602464
1125,0.40483689308166504,0.5236363410949707,0.92,0.78,0.00019842513149602464
1126,0.40319713950157166,0.529658317565918,0.91,0.77,0.00019842513149602464
1127,0.4050477147102356,0.5334432721138,0.91,0.76,0.00019842513149602464
1128,0.4129328429698944,0.5344823002815247,0.9,0.76,0.00019842513149602464
1129,0.4150552451610565,0.5332232117652893,0.91,0.76,0.00019842513149602464
1130,0.41367611289024353,0.5298768877983093,0.91,0.77,0.00019842513149602464
1131,0.41100963950157166,0.5249996185302734,0.91,0.78,0.00019842513149602464
1132,0.40895184874534607,0.5204344987869263,0.9,0.78,0.00019842513149602464
1133,0.40546920895576477,0.5185341835021973,0.91,0.8,0.00019842513149602464
1134,0.40409621596336365,0.5193110108375549,0.92,0.8,0.00019842513149602464
1135,0.40256553888320923,0.5216243267059326,0.92,0.79,0.00019842513149602464
1136,0.40094512701034546,0.5237810611724854,0.92,0.78,0.00019842513149602464
1137,0.40008682012557983,0.5242725610733032,0.93,0.79,0.00019842513149602464
1138,0.4012392461299896,0.5240867137908936,0.93,0.79,0.00019842513149602464
1139,0.402912974357605,0.5240545272827148,0.92,0.79,0.00019842513149602464
1140,0.40300628542900085,0.5243544578552246,0.91,0.79,0.00019842513149602464
1141,0.4012492895126343,0.5248180627822876,0.93,0.78,0.00019842513149602464
1142,0.39891573786735535,0.5245590806007385,0.93,0.78,0.00019842513149602464
1143,0.39765694737434387,0.5235217809677124,0.93,0.79,0.00019842513149602464
1144,0.39755451679229736,0.5230634808540344,0.93,0.79,0.00019842513149602464
1145,0.39743107557296753,0.5239574909210205,0.93,0.8,0.00019842513149602464
1146,0.3967233896255493,0.525734007358551,0.93,0.78,0.00019842513149602464
1147,0.3963944911956787,0.5272135138511658,0.92,0.78,0.00019842513149602464
1148,0.3970365822315216,0.5277448296546936,0.92,0.78,0.00019842513149602464
1149,0.39742520451545715,0.5273277163505554,0.92,0.78,0.00019842513149602464
1150,0.3967089056968689,0.5262658596038818,0.92,0.78,0.00019842513149602464
1151,0.39576420187950134,0.5249876976013184,0.92,0.79,0.00019842513149602464
1152,0.39531517028808594,0.5240182280540466,0.93,0.79,0.00019842513149602464
1153,0.39524394273757935,0.523769736289978,0.93,0.79,0.00019842513149602464
1154,0.39520004391670227,0.5241785645484924,0.93,0.79,0.00019842513149602464
1155,0.3950563073158264,0.5248107314109802,0.92,0.78,0.00015749013123685888
1156,0.39492911100387573,0.5252293944358826,0.92,0.78,0.00015749013123685888
1157,0.3949022591114044,0.5254867076873779,0.92,0.78,0.00015749013123685888
1158,0.3949114978313446,0.5256263017654419,0.92,0.78,0.00015749013123685888
1159,0.39490118622779846,0.5257012844085693,0.92,0.79,0.00015749013123685888
1160,0.39483126997947693,0.5257300734519958,0.92,0.79,0.00015749013123685888
1161,0.3946959674358368,0.5256863832473755,0.92,0.79,0.00015749013123685888
1162,0.39452141523361206,0.5255086421966553,0.92,0.79,0.00015749013123685888
1163,0.3943462371826172,0.5251659154891968,0.92,0.79,0.00015749013123685888
1164,0.39419978857040405,0.5246963500976562,0.92,0.79,0.00015749013123685888
1165,0.39409539103507996,0.524153470993042,0.92,0.79,0.00015749013123685888
1166,0.3940248191356659,0.5237047672271729,0.92,0.79,0.00015749013123685888
1167,0.39397379755973816,0.5234090685844421,0.92,0.79,0.00015749013123685888
1168,0.3939281404018402,0.523308277130127,0.93,0.79,0.00015749013123685888
1169,0.3938809633255005,0.5233823657035828,0.93,0.79,0.00015749013123685888
1170,0.39383232593536377,0.5235589742660522,0.93,0.79,0.00015749013123685888
1171,0.39378395676612854,0.5237715244293213,0.93,0.79,0.00015749013123685888
1172,0.39373669028282166,0.523963451385498,0.93,0.79,0.00015749013123685888
1173,0.3936845660209656,0.5240966081619263,0.93,0.79,0.00015749013123685888
1174,0.3936247229576111,0.524178147315979,0.93,0.79,0.00015749013123685888
1175,0.3935568332672119,0.5241873264312744,0.93,0.79,0.00015749013123685888
1176,0.39348357915878296,0.5241360664367676,0.93,0.79,0.00015749013123685888
1177,0.3934112787246704,0.5240611433982849,0.92,0.79,0.00015749013123685888
1178,0.3933447301387787,0.5239787101745605,0.92,0.79,0.00015749013123685888
1179,0.39328837394714355,0.5239014625549316,0.92,0.79,0.00015749013123685888
1180,0.39323872327804565,0.523855447769165,0.92,0.79,0.00015749013123685888
1181,0.3931964039802551,0.5238323211669922,0.92,0.79,0.00015749013123685888
1182,0.39315658807754517,0.5238515138626099,0.92,0.79,0.00015749013123685888
1183,0.3931173086166382,0.5238906145095825,0.92,0.79,0.00015749013123685888
1184,0.39307671785354614,0.523938000202179,0.92,0.79,0.00015749013123685888
1185,0.39303478598594666,0.5239911675453186,0.92,0.79,0.00015749013123685888
1186,0.3929925560951233,0.5240251421928406,0.92,0.79,0.00015749013123685888
1187,0.3929489552974701,0.5240429043769836,0.92,0.79,0.00015749013123685888
1188,0.3929057717323303,0.524036169052124,0.92,0.79,0.00015749013123685888
1189,0.39286327362060547,0.5239934325218201,0.92,0.79,0.00015749013123685888
1190,0.39282116293907166,0.5239183902740479,0.92,0.79,0.00015749013123685888
1191,0.39277979731559753,0.5238140821456909,0.92,0.79,0.00015749013123685888
1192,0.3927387297153473,0.5236783027648926,0.92,0.79,0.00015749013123685888
1193,0.39269912242889404,0.5235228538513184,0.92,0.79,0.00015749013123685888
1194,0.39265936613082886,0.5233506560325623,0.92,0.79,0.00015749013123685888
1195,0.39262112975120544,0.5231723785400391,0.92,0.79,0.00015749013123685888
1196,0.39258435368537903,0.5229982137680054,0.92,0.79,0.00015749013123685888
1197,0.3925495147705078,0.522838830947876,0.92,0.79,0.00015749013123685888
1198,0.39251503348350525,0.5227015614509583,0.92,0.79,0.00015749013123685888
1199,0.3924815356731415,0.5225913524627686,0.92,0.79,0.00015749013123685888
1200,0.39244720339775085,0.5225071907043457,0.92,0.79,0.00015749013123685888
1201,0.39241358637809753,0.5224590301513672,0.92,0.79,0.00015749013123685888
1202,0.39237937331199646,0.5224273204803467,0.92,0.79,0.00015749013123685888
1203,0.39234501123428345,0.5224101543426514,0.92,0.79,0.00015749013123685888
1204,0.3923113942146301,0.5223994255065918,0.92,0.79,0.00015749013123685888
1205,0.3922772705554962,0.5223836302757263,0.92,0.79,0.00015749013123685888
1206,0.3922441005706787,0.5223653316497803,0.92,0.79,0.00015749013123685888
1207,0.3922101855278015,0.5223489999771118,0.92,0.79,0.00015749013123685888
1208,0.39217761158943176,0.5223138332366943,0.92,0.79,0.00015749013123685888
1209,0.3921460211277008,0.5222682952880859,0.92,0.79,0.00015749013123685888
1210,0.39211395382881165,0.5222128629684448,0.92,0.79,0.00015749013123685888
1211,0.3920823037624359,0.5221478939056396,0.92,0.79,0.00015749013123685888
1212,0.3920513093471527,0.5220810174942017,0.92,0.79,0.00015749013123685888
1213,0.3920208811759949,0.5220052599906921,0.92,0.79,0.00015749013123685888
1214,0.3919896185398102,0.5219300985336304,0.92,0.79,0.00015749013123685888
1215,0.39195936918258667,0.5218579173088074,0.92,0.79,0.00015749013123685888
1216,0.39192917943000793,0.521781861782074,0.92,0.79,0.00015749013123685888
1217,0.39189866185188293,0.5217070579528809,0.92,0.79,0.00015749013123685888
1218,0.3918687105178833,0.5216425061225891,0.92,0.79,0.00015749013123685888
1219,0.3918381929397583,0.5215768218040466,0.92,0.79,0.00015749013123685888
1220,0.39180895686149597,0.5215128660202026,0.92,0.79,0.00015749013123685888
1221,0.3917796015739441,0.52144455909729,0.92,0.79,0.00015749013123685888
1222,0.39174923300743103,0.5213784575462341,0.92,0.79,0.00015749013123685888
1223,0.3917202055454254,0.5213072896003723,0.92,0.79,0.00015749013123685888
1224,0.3916909098625183,0.5212432146072388,0.92,0.79,0.00015749013123685888
1225,0.3916621804237366,0.5211717486381531,0.92,0.79,0.00015749013123685888
1226,0.3916333019733429,0.5210977792739868,0.92,0.79,0.00015749013123685888
1227,0.3916044235229492,0.5210268497467041,0.92,0.79,0.00015749013123685888
1228,0.39157649874687195,0.5209476351737976,0.92,0.79,0.00015749013123685888
1229,0.3915475010871887,0.5208699703216553,0.92,0.79,0.00015749013123685888
1230,0.3915197253227234,0.52079838514328,0.92,0.79,0.00015749013123685888
1231,0.3914908468723297,0.5207250714302063,0.92,0.8,0.00015749013123685888
1232,0.39146268367767334,0.5206578373908997,0.92,0.8,0.00015749013123685888
1233,0.3914354741573334,0.5205953121185303,0.92,0.8,0.00015749013123685888
1234,0.391407310962677,0.5205382704734802,0.92,0.8,0.00015749013123685888
1235,0.39137938618659973,0.5204814672470093,0.92,0.8,0.00015749013123685888
1236,0.39135098457336426,0.5204296708106995,0.92,0.8,0.00015749013123685888
1237,0.3913240432739258,0.5203848481178284,0.92,0.8,0.00015749013123685888
1238,0.39129647612571716,0.520343542098999,0.92,0.8,0.00015749013123685888
1239,0.3912692368030548,0.5202954411506653,0.92,0.8,0.00015749013123685888
1240,0.3912423849105835,0.5202513337135315,0.92,0.8,0.00015749013123685888
1241,0.3912148177623749,0.5202102065086365,0.92,0.8,0.00015749013123685888
1242,0.3911881744861603,0.5201646089553833,0.92,0.8,0.00015749013123685888
1243,0.3911610543727875,0.5201149582862854,0.92,0.8,0.00015749013123685888
1244,0.39113345742225647,0.5200717449188232,0.92,0.8,0.00015749013123685888
1245,0.3911069929599762,0.5200262665748596,0.92,0.8,0.00015749013123685888
1246,0.39108020067214966,0.5199736952781677,0.92,0.8,0.00015749013123685888
1247,0.3910537362098694,0.519915759563446,0.92,0.8,0.00015749013123685888
1248,0.39102745056152344,0.519855260848999,0.92,0.8,0.00015749013123685888
1249,0.3910005986690521,0.5197992324829102,0.92,0.8,0.00015749013123685888
1250,0.3909744620323181,0.519739031791687,0.92,0.8,0.00015749013123685888
1251,0.3909478783607483,0.5196848511695862,0.92,0.8,0.00015749013123685888
1252,0.39092200994491577,0.519631564617157,0.92,0.8,0.00015749013123685888
1253,0.3908953070640564,0.5195754766464233,0.92,0.8,0.00015749013123685888
1254,0.39086899161338806,0.5195288062095642,0.92,0.8,0.00015749013123685888
1255,0.39084261655807495,0.5194737911224365,0.92,0.8,0.00015749013123685888
1256,0.3908167779445648,0.5194215178489685,0.92,0.8,0.00012499999999999976
1257,0.3907909691333771,0.5193797945976257,0.92,0.8,0.00012499999999999976
1258,0.39077067375183105,0.5193392038345337,0.92,0.8,0.00012499999999999976
1259,0.39075058698654175,0.5192973017692566,0.92,0.8,0.00012499999999999976
1260,0.39072975516319275,0.519254744052887,0.92,0.8,0.00012499999999999976
1261,0.3907097280025482,0.5192174315452576,0.92,0.8,0.00012499999999999976
1262,0.3906891345977783,0.519179105758667,0.92,0.8,0.00012499999999999976
1263,0.3906687796115875,0.5191375613212585,0.92,0.8,0.00012499999999999976
1264,0.3906484544277191,0.5190961360931396,0.92,0.8,0.00012499999999999976
1265,0.3906286954879761,0.5190541744232178,0.92,0.8,0.00012499999999999976
1266,0.39060819149017334,0.5190145373344421,0.92,0.8,0.00012499999999999976
1267,0.3905881941318512,0.518975019454956,0.92,0.8,0.00012499999999999976
1268,0.3905680775642395,0.5189310908317566,0.92,0.8,0.00012499999999999976
1269,0.3905481994152069,0.5188881158828735,0.92,0.8,0.00012499999999999976
1270,0.39052826166152954,0.5188472270965576,0.92,0.8,0.00012499999999999976
1271,0.3905082941055298,0.5188049077987671,0.92,0.8,0.00012499999999999976
1272,0.3904883861541748,0.5187650918960571,0.92,0.8,0.00012499999999999976
1273,0.3904680907726288,0.5187227129936218,0.92,0.8,0.00012499999999999976
1274,0.3904479146003723,0.5186825394630432,0.92,0.8,0.00012499999999999976
1275,0.3904285132884979,0.5186426043510437,0.92,0.8,0.00012499999999999976
1276,0.3904089629650116,0.5186050534248352,0.93,0.8,0.00012499999999999976
1277,0.3903892934322357,0.5185695886611938,0.93,0.8,0.00012499999999999976
1278,0.3903700113296509,0.5185340642929077,0.93,0.8,0.00012499999999999976
1279,0.3903499245643616,0.5185014605522156,0.93,0.8,0.00012499999999999976
1280,0.39033031463623047,0.5184637308120728,0.93,0.8,0.00012499999999999976
1281,0.3903108239173889,0.5184292197227478,0.93,0.8,0.00012499999999999976
1282,0.3902915120124817,0.5183864831924438,0.93,0.8,0.00012499999999999976
1283,0.3902713656425476,0.5183435678482056,0.93,0.8,0.00012499999999999976
1284,0.39025193452835083,0.5183017253875732,0.93,0.8,0.00012499999999999976
1285,0.3902331590652466,0.5182572603225708,0.93,0.8,0.00012499999999999976
1286,0.3902137279510498,0.5182129144668579,0.93,0.8,0.00012499999999999976
1287,0.3901940882205963,0.5181642770767212,0.93,0.8,0.00012499999999999976
1288,0.39017510414123535,0.5181127786636353,0.93,0.8,0.00012499999999999976
1289,0.3901562988758087,0.5180637836456299,0.93,0.8,0.00012499999999999976
1290,0.3901370167732239,0.5180209279060364,0.93,0.8,0.00012499999999999976
1291,0.3901183009147644,0.5179752111434937,0.93,0.8,0.00012499999999999976
1292,0.3900994062423706,0.5179262757301331,0.93,0.8,0.00012499999999999976
1293,0.3900800943374634,0.5178819894790649,0.93,0.8,0.00012499999999999976
1294,0.39006057381629944,0.5178369879722595,0.93,0.8,0.00012499999999999976
1295,0.3900420367717743,0.5177866220474243,0.93,0.8,0.00012499999999999976
1296,0.3900225758552551,0.5177409648895264,0.93,0.8,0.00012499999999999976
1297,0.39000365138053894,0.517692506313324,0.93,0.8,0.00012499999999999976
1298,0.38998499512672424,0.5176469683647156,0.93,0.8,0.00012499999999999976
1299,0.38996708393096924,0.5176025032997131,0.93,0.8,0.00012499999999999976
1300,0.3899476230144501,0.5175498723983765,0.93,0.8,0.00012499999999999976
1301,0.3899290859699249,0.5174983739852905,0.93,0.8,0.00012499999999999976
1302,0.38991108536720276,0.5174314975738525,0.93,0.8,0.00012499999999999976
1303,0.3898920714855194,0.5173876881599426,0.93,0.8,0.00012499999999999976
1304,0.38987305760383606,0.5173305869102478,0.93,0.8,0.00012499999999999976
1305,0.3898546099662781,0.5172802805900574,0.93,0.8,0.00012499999999999976
1306,0.38983654975891113,0.5172210335731506,0.93,0.8,0.00012499999999999976
1307,0.3898180425167084,0.5171496272087097,0.93,0.8,0.00012499999999999976
1308,0.38979989290237427,0.5170950889587402,0.93,0.8,0.00012499999999999976
1309,0.38978177309036255,0.517014741897583,0.93,0.8,0.00012499999999999976
1310,0.3897632360458374,0.5169620513916016,0.93,0.8,0.00012499999999999976
1311,0.3897453248500824,0.5169118046760559,0.93,0.8,0.00012499999999999976
1312,0.3897271752357483,0.5168445110321045,0.93,0.8,0.00012499999999999976
1313,0.38970834016799927,0.5167788863182068,0.93,0.8,0.00012499999999999976
1314,0.38969066739082336,0.5167006254196167,0.93,0.8,0.00012499999999999976
1315,0.3896724581718445,0.5166385769844055,0.93,0.8,0.00012499999999999976
1316,0.3896549940109253,0.5165640115737915,0.93,0.8,0.00012499999999999976
1317,0.3896370232105255,0.5164886713027954,0.93,0.8,0.00012499999999999976
1318,0.38961923122406006,0.5164023637771606,0.93,0.8,0.00012499999999999976
1319,0.3896016776561737,0.5163369178771973,0.93,0.8,0.00012499999999999976
1320,0.3895837366580963,0.516260027885437,0.93,0.8,0.00012499999999999976
1321,0.3895661234855652,0.5162208080291748,0.93,0.8,0.00012499999999999976
1322,0.3895481526851654,0.5161432027816772,0.93,0.8,0.00012499999999999976
1323,0.3895303010940552,0.5160682797431946,0.93,0.8,0.00012499999999999976
1324,0.38951319456100464,0.5159960389137268,0.93,0.8,0.00012499999999999976
1325,0.3894956111907959,0.5158968567848206,0.93,0.8,0.00012499999999999976
1326,0.38947755098342896,0.5158082246780396,0.93,0.8,0.00012499999999999976
1327,0.38946056365966797,0.5157121419906616,0.93,0.8,0.00012499999999999976
1328,0.38944336771965027,0.5156290531158447,0.93,0.8,0.00012499999999999976
1329,0.3894261121749878,0.5155553817749023,0.93,0.8,0.00012499999999999976
1330,0.38940906524658203,0.5154749751091003,0.93,0.8,0.00012499999999999976
1331,0.38939225673675537,0.51539146900177,0.93,0.8,0.00012499999999999976
1332,0.3893752992153168,0.5153266787528992,0.93,0.8,0.00012499999999999976
1333,0.38935813307762146,0.5152331590652466,0.93,0.8,0.00012499999999999976
1334,0.3893408477306366,0.5151580572128296,0.93,0.8,0.00012499999999999976
1335,0.38932421803474426,0.515049159526825,0.93,0.8,0.00012499999999999976
1336,0.3893068730831146,0.5149641633033752,0.93,0.8,0.00012499999999999976
1337,0.3892904222011566,0.5148863792419434,0.93,0.8,0.00012499999999999976
1338,0.3892732560634613,0.5147907137870789,0.93,0.8,0.00012499999999999976
1339,0.3892567455768585,0.5147099494934082,0.93,0.8,0.00012499999999999976
1340,0.3892400860786438,0.5146207213401794,0.93,0.8,0.00012499999999999976
1341,0.38922348618507385,0.5145317316055298,0.93,0.8,0.00012499999999999976
1342,0.38920706510543823,0.5144655704498291,0.93,0.8,0.00012499999999999976
1343,0.38919028639793396,0.5143780708312988,0.93,0.8,0.00012499999999999976
1344,0.38917410373687744,0.5142863988876343,0.93,0.8,0.00012499999999999976
1345,0.38915807008743286,0.5142062902450562,0.93,0.8,0.00012499999999999976
1346,0.3891414403915405,0.5141085982322693,0.93,0.8,0.00012499999999999976
1347,0.3891242742538452,0.5140244960784912,0.93,0.8,0.00012499999999999976
1348,0.38910824060440063,0.5139287114143372,0.93,0.8,0.00012499999999999976
1349,0.38909247517585754,0.5138564109802246,0.93,0.8,0.00012499999999999976
1350,0.38907623291015625,0.5137878656387329,0.93,0.8,0.00012499999999999976
1351,0.389060378074646,0.513668954372406,0.93,0.8,0.00012499999999999976
1352,0.3890443742275238,0.5135793089866638,0.93,0.8,0.00012499999999999976
1353,0.3890281319618225,0.5134924054145813,0.93,0.8,0.00012499999999999976
1354,0.38901251554489136,0.5134131908416748,0.93,0.8,0.00012499999999999976
1355,0.38899677991867065,0.5133318305015564,0.93,0.8,0.00012499999999999976
1356,0.3889811635017395,0.5132472515106201,0.93,0.8,0.00012499999999999976
1357,0.38896501064300537,0.5131159424781799,0.93,0.8,0.0001
1358,0.3889489471912384,0.513039767742157,0.93,0.8,0.0001
1359,0.38893646001815796,0.5129847526550293,0.93,0.8,0.0001
1360,0.3889239430427551,0.5129172801971436,0.93,0.8,0.0001
1361,0.3889116942882538,0.5128412842750549,0.93,0.8,0.0001
1362,0.38889941573143005,0.5127483010292053,0.93,0.8,0.0001
1363,0.38888704776763916,0.5126790404319763,0.93,0.8,0.0001
1364,0.3888746500015259,0.5126017332077026,0.93,0.8,0.0001
1365,0.38886258006095886,0.5125320553779602,0.93,0.8,0.0001
1366,0.38885030150413513,0.5124576687812805,0.93,0.8,0.0001
1367,0.3888379633426666,0.5123960971832275,0.93,0.8,0.0001
1368,0.38882625102996826,0.5123283863067627,0.93,0.8,0.0001
1369,0.3888137936592102,0.512246310710907,0.93,0.8,0.0001
1370,0.38880157470703125,0.5121751427650452,0.93,0.8,0.0001
1371,0.3887897729873657,0.5121150612831116,0.93,0.8,0.0001
1372,0.38877731561660767,0.5120491981506348,0.93,0.8,0.0001
1373,0.38876524567604065,0.5119914412498474,0.93,0.8,0.0001
1374,0.388753205537796,0.5119590163230896,0.93,0.8,0.0001
1375,0.38874098658561707,0.5118893980979919,0.93,0.8,0.0001
1376,0.3887294828891754,0.511833131313324,0.93,0.8,0.0001
1377,0.38871756196022034,0.511773943901062,0.93,0.8,0.0001
1378,0.38870593905448914,0.5117070078849792,0.93,0.8,0.0001
1379,0.38869407773017883,0.5116417407989502,0.93,0.8,0.0001
1380,0.3886820077896118,0.5115719437599182,0.93,0.8,0.0001
1381,0.38867050409317017,0.5115008354187012,0.93,0.8,0.0001
1382,0.38865843415260315,0.5114294290542603,0.93,0.8,0.0001
1383,0.3886466324329376,0.5113470554351807,0.93,0.8,0.0001
1384,0.3886350393295288,0.5112630724906921,0.93,0.8,0.0001
1385,0.38862332701683044,0.5111966729164124,0.93,0.8,0.0001
1386,0.3886117935180664,0.5111243724822998,0.93,0.8,0.0001
1387,0.3885996341705322,0.5110414028167725,0.93,0.8,0.0001
1388,0.3885878622531891,0.5109737515449524,0.93,0.8,0.0001
1389,0.3885766267776489,0.5109063982963562,0.93,0.8,0.0001
1390,0.38856494426727295,0.5108287930488586,0.93,0.8,0.0001
1391,0.3885535001754761,0.5107492208480835,0.93,0.8,0.0001
1392,0.3885418176651001,0.5106843709945679,0.93,0.8,0.0001
1393,0.38853058218955994,0.5106260180473328,0.93,0.8,0.0001
1394,0.38851916790008545,0.5105695128440857,0.93,0.8,0.0001
1395,0.38850775361061096,0.5105114579200745,0.93,0.8,0.0001
1396,0.3884962201118469,0.5104410648345947,0.93,0.8,0.0001
1397,0.3884848654270172,0.5103834271430969,0.93,0.8,0.0001
1398,0.3884739577770233,0.5102902054786682,0.93,0.8,0.0001
1399,0.38846251368522644,0.5102272629737854,0.93,0.8,0.0001
1400,0.3884512782096863,0.5101584196090698,0.93,0.8,0.0001
1401,0.3884398937225342,0.5100921988487244,0.93,0.8,0.0001
1402,0.3884284496307373,0.5100268721580505,0.93,0.8,0.0001
1403,0.3884170651435852,0.5099635720252991,0.93,0.8,0.0001
1404,0.3884061872959137,0.5098921656608582,0.93,0.8,0.0001
1405,0.38839447498321533,0.5098268389701843,0.93,0.8,0.0001
1406,0.3883834779262543,0.5097688436508179,0.93,0.8,0.0001
1407,0.3883722722530365,0.5097045302391052,0.93,0.8,0.0001
1408,0.3883608281612396,0.5096369385719299,0.93,0.8,0.0001
1409,0.38835009932518005,0.5095928311347961,0.93,0.8,0.0001
1410,0.3883390724658966,0.5095317959785461,0.93,0.8,0.0001
1411,0.3883276879787445,0.5094732046127319,0.93,0.8,0.0001
1412,0.388316810131073,0.5094194412231445,0.93,0.8,0.0001
1413,0.3883056938648224,0.5093474984169006,0.93,0.8,0.0001
1414,0.38829460740089417,0.5092838406562805,0.93,0.8,0.0001
1415,0.38828399777412415,0.509226381778717,0.93,0.8,0.0001
1416,0.38827258348464966,0.5091711282730103,0.93,0.8,0.0001
1417,0.3882615566253662,0.5090947151184082,0.93,0.8,0.0001
1418,0.3882507383823395,0.5090280175209045,0.93,0.8,0.0001
1419,0.38823989033699036,0.5089572072029114,0.93,0.8,0.0001
1420,0.38822877407073975,0.5088951587677002,0.93,0.8,0.0001
1421,0.3882174789905548,0.5088140964508057,0.93,0.8,0.0001
1422,0.3882068395614624,0.5087514519691467,0.93,0.8,0.0001
1423,0.38819584250450134,0.5086894035339355,0.93,0.8,0.0001
1424,0.3881852328777313,0.50862717628479,0.93,0.8,0.0001
1425,0.38817447423934937,0.5085713863372803,0.93,0.8,0.0001
1426,0.3881639242172241,0.5085165500640869,0.93,0.8,0.0001
1427,0.388153076171875,0.5084569454193115,0.93,0.8,0.0001
1428,0.3881424069404602,0.508398711681366,0.93,0.8,0.0001
1429,0.38813185691833496,0.5083358287811279,0.93,0.8,0.0001
1430,0.3881210684776306,0.5082790851593018,0.93,0.8,0.0001
1431,0.38811030983924866,0.508208155632019,0.93,0.8,0.0001
1432,0.3880993127822876,0.5081247091293335,0.93,0.8,0.0001
1433,0.38808831572532654,0.5080581307411194,0.93,0.8,0.0001
1434,0.38807782530784607,0.5079951882362366,0.93,0.8,0.0001
1435,0.3880670964717865,0.5079377889633179,0.93,0.8,0.0001
1436,0.3880566656589508,0.5078747868537903,0.93,0.8,0.0001
1437,0.3880457282066345,0.507810115814209,0.93,0.8,0.0001
1438,0.3880350589752197,0.5077520608901978,0.93,0.8,0.0001
1439,0.3880244195461273,0.5076895952224731,0.93,0.8,0.0001
1440,0.3880139887332916,0.5076335072517395,0.93,0.8,0.0001
1441,0.3880031704902649,0.5075782537460327,0.93,0.8,0.0001
1442,0.3879927694797516,0.5075239539146423,0.93,0.8,0.0001
1443,0.38798218965530396,0.5074682831764221,0.93,0.8,0.0001
1444,0.3879717290401459,0.5074160099029541,0.93,0.8,0.0001
1445,0.38796114921569824,0.5073696970939636,0.93,0.8,0.0001
1446,0.3879506587982178,0.5073050260543823,0.93,0.8,0.0001
1447,0.3879398703575134,0.5072470307350159,0.93,0.8,0.0001
1448,0.387929767370224,0.5071842670440674,0.93,0.8,0.0001
1449,0.387919157743454,0.5071158409118652,0.93,0.8,0.0001
1450,0.3879086673259735,0.5070449709892273,0.93,0.81,0.0001
1451,0.3878980576992035,0.5069820880889893,0.93,0.81,0.0001
1452,0.3878869116306305,0.5069280862808228,0.93,0.81,0.0001
1453,0.38787680864334106,0.5068721175193787,0.93,0.81,0.0001
1454,0.3878665864467621,0.5068181753158569,0.93,0.81,0.0001
1455,0.3878558874130249,0.5067620277404785,0.93,0.81,0.0001
1456,0.3878457248210907,0.5067038536071777,0.93,0.81,0.0001
1457,0.3878355026245117,0.5066404938697815,0.93,0.81,0.0001
1458,0.3878249228000641,0.5065860152244568,0.93,0.81,0.0001
1459,0.3878144919872284,0.5065318942070007,0.93,0.81,0.0001
1460,0.38780438899993896,0.5064799189567566,0.93,0.81,0.0001
1461,0.3877941370010376,0.5064333081245422,0.93,0.81,0.0001
1462,0.38778358697891235,0.5063647031784058,0.93,0.81,0.0001
1463,0.3877725303173065,0.5063135623931885,0.93,0.81,0.0001
1464,0.3877623677253723,0.5062519311904907,0.93,0.81,0.0001
1465,0.38775184750556946,0.5061905384063721,0.93,0.81,0.0001
1466,0.3877407908439636,0.5061305165290833,0.93,0.81,0.0001
1467,0.3877304792404175,0.5060811042785645,0.93,0.81,0.0001
1468,0.3877201974391937,0.5060185790061951,0.93,0.81,0.0001
1469,0.38771000504493713,0.505957841873169,0.93,0.81,0.0001
1470,0.3876996636390686,0.5058965086936951,0.93,0.81,0.0001
1471,0.38768982887268066,0.5058382749557495,0.93,0.81,0.0001
1472,0.3876793682575226,0.5057832598686218,0.93,0.81,0.0001
1473,0.3876684606075287,0.5057321190834045,0.93,0.81,0.0001
1474,0.38765841722488403,0.5056805610656738,0.93,0.81,0.0001
1475,0.38764771819114685,0.5056265592575073,0.93,0.81,0.0001
1476,0.387637734413147,0.5055795907974243,0.93,0.81,0.0001
1477,0.38762757182121277,0.5055241584777832,0.93,0.81,0.0001
1478,0.3876170217990875,0.5054569840431213,0.93,0.81,0.0001
1479,0.38760632276535034,0.5054006576538086,0.93,0.81,0.0001
1480,0.3875955641269684,0.5053561925888062,0.93,0.81,0.0001
1481,0.3875853717327118,0.5053132772445679,0.93,0.81,0.0001
1482,0.38757506012916565,0.5052614808082581,0.93,0.81,0.0001
1483,0.38756465911865234,0.5052077770233154,0.93,0.81,0.0001
1484,0.38755467534065247,0.5051551461219788,0.93,0.81,0.0001
1485,0.3875443637371063,0.5051044225692749,0.93,0.81,0.0001
1486,0.3875340521335602,0.5050496459007263,0.93,0.81,0.0001
1487,0.3875237703323364,0.5049960613250732,0.93,0.81,0.0001
1488,0.38751354813575745,0.5049449801445007,0.93,0.81,0.0001
1489,0.38750308752059937,0.5048967599868774,0.93,0.81,0.0001
1490,0.3874928951263428,0.5048308372497559,0.93,0.81,0.0001
1491,0.3874826729297638,0.5047807097434998,0.93,0.81,0.0001
1492,0.3874722421169281,0.5047311782836914,0.93,0.81,0.0001
1493,0.38746127486228943,0.5046809315681458,0.93,0.81,0.0001
1494,0.38745078444480896,0.5046265721321106,0.93,0.81,0.0001
1495,0.38744041323661804,0.5045715570449829,0.93,0.81,0.0001
1496,0.38743001222610474,0.5045251250267029,0.93,0.81,0.0001
1497,0.38741961121559143,0.5044790506362915,0.93,0.81,0.0001
1498,0.387409508228302,0.5044273138046265,0.93,0.81,0.0001
1499,0.3873991370201111,0.5043854713439941,0.93,0.81,0.0001
1500,0.3873889148235321,0.5043377876281738,0.93,0.81,0.0001
1501,0.38737887144088745,0.5042884945869446,0.93,0.81,0.0001
1502,0.3873685896396637,0.5042385458946228,0.93,0.81,0.0001
1503,0.3873582184314728,0.5041882991790771,0.93,0.81,0.0001
1504,0.3873478174209595,0.5041443705558777,0.93,0.81,0.0001
1505,0.38733741641044617,0.5040988326072693,0.93,0.81,0.0001
1506,0.3873269557952881,0.5040566921234131,0.93,0.81,0.0001
1507,0.3873167335987091,0.504005491733551,0.93,0.81,0.0001
1508,0.3873063921928406,0.5039629340171814,0.93,0.81,0.0001
1509,0.38729608058929443,0.5039207339286804,0.93,0.81,0.0001
1510,0.3872855305671692,0.5038735270500183,0.93,0.81,0.0001
1511,0.38727450370788574,0.503832995891571,0.93,0.81,0.0001
1512,0.38726380467414856,0.5037969350814819,0.93,0.81,0.0001
1513,0.38725388050079346,0.503756582736969,0.93,0.81,0.0001
1514,0.3872436285018921,0.5037094354629517,0.93,0.81,0.0001
1515,0.38723304867744446,0.5036677718162537,0.93,0.81,0.0001
1516,0.3872227966785431,0.5036190748214722,0.93,0.81,0.0001
1517,0.3872123658657074,0.5035716891288757,0.93,0.81,0.0001
1518,0.3872021734714508,0.5035306811332703,0.93,0.81,0.0001
1519,0.3871913552284241,0.5034915804862976,0.93,0.81,0.0001
1520,0.3871805965900421,0.5034480690956116,0.93,0.81,0.0001
1521,0.38717007637023926,0.5033984780311584,0.93,0.81,0.0001
1522,0.38715964555740356,0.5033557415008545,0.93,0.81,0.0001
1523,0.3871493637561798,0.5033161640167236,0.93,0.81,0.0001
1524,0.3871387541294098,0.5032834410667419,0.93,0.81,0.0001
1525,0.38712868094444275,0.5032378435134888,0.93,0.81,0.0001
1526,0.38711822032928467,0.5032015442848206,0.93,0.81,0.0001
1527,0.38710784912109375,0.503146231174469,0.93,0.81,0.0001
1528,0.3870964050292969,0.50310879945755,0.93,0.81,0.0001
1529,0.387085884809494,0.5030710697174072,0.93,0.81,0.0001
1530,0.38707566261291504,0.5030298829078674,0.93,0.81,0.0001
1531,0.3870650827884674,0.5029986500740051,0.93,0.81,0.0001
1532,0.38705429434776306,0.5029658675193787,0.93,0.81,0.0001
1533,0.38704338669776917,0.5029279589653015,0.93,0.81,0.0001
1534,0.3870326280593872,0.5028876662254333,0.93,0.81,0.0001
1535,0.3870222568511963,0.5028471946716309,0.93,0.81,0.0001
1536,0.3870115578174591,0.5028015375137329,0.93,0.81,0.0001
1537,0.3870006799697876,0.5027639865875244,0.93,0.81,0.0001
1538,0.38699018955230713,0.5027206540107727,0.93,0.81,0.0001
1539,0.38697975873947144,0.5026812553405762,0.93,0.81,0.0001
1540,0.3869689106941223,0.5026461482048035,0.93,0.81,0.0001
1541,0.38695842027664185,0.5026087760925293,0.93,0.81,0.0001
1542,0.3869476616382599,0.5025629997253418,0.93,0.81,0.0001
1543,0.3869364857673645,0.5025248527526855,0.93,0.81,0.0001
1544,0.38692525029182434,0.5024840831756592,0.93,0.81,0.0001
1545,0.3869144022464752,0.5024445056915283,0.93,0.81,0.0001
1546,0.3869036138057709,0.5024135112762451,0.93,0.81,0.0001
1547,0.3868925869464874,0.5023759007453918,0.93,0.81,0.0001
1548,0.3868820071220398,0.502337634563446,0.93,0.81,0.0001
1549,0.3868716061115265,0.5022992491722107,0.93,0.81,0.0001
1550,0.3868609666824341,0.5022580623626709,0.93,0.81,0.0001
1551,0.3868500590324402,0.5022209286689758,0.93,0.81,0.0001
1552,0.3868390917778015,0.5021876096725464,0.93,0.81,0.0001
1553,0.38682830333709717,0.5021517872810364,0.93,0.81,0.0001
1554,0.38681715726852417,0.5021132230758667,0.93,0.81,0.0001
1555,0.3868054449558258,0.5020750164985657,0.93,0.81,0.0001
1556,0.38679489493370056,0.5020421147346497,0.93,0.81,0.0001
1557,0.3867841362953186,0.501998782157898,0.93,0.81,0.0001
1558,0.3867732286453247,0.5019606947898865,0.93,0.81,0.0001
1559,0.38676196336746216,0.5019220113754272,0.93,0.81,0.0001
1560,0.38675063848495483,0.5018790364265442,0.93,0.81,0.0001
1561,0.3867392838001251,0.5018394589424133,0.93,0.81,0.0001
1562,0.3867281675338745,0.5017985701560974,0.93,0.81,0.0001
1563,0.38671737909317017,0.5017598867416382,0.93,0.81,0.0001
1564,0.38670608401298523,0.5017162561416626,0.93,0.8,0.0001
1565,0.3866948187351227,0.5016761422157288,0.93,0.8,0.0001
1566,0.3866839110851288,0.5016412734985352,0.93,0.8,0.0001
1567,0.38667210936546326,0.5016028881072998,0.93,0.8,0.0001
1568,0.3866610825061798,0.5015667676925659,0.93,0.8,0.0001
1569,0.3866499960422516,0.5015285611152649,0.93,0.8,0.0001
1570,0.3866385519504547,0.5014921426773071,0.93,0.8,0.0001
1571,0.3866274356842041,0.5014511942863464,0.93,0.8,0.0001
1572,0.386616051197052,0.5014173984527588,0.93,0.8,0.0001
1573,0.3866044580936432,0.5013757944107056,0.93,0.8,0.0001
1574,0.3865923285484314,0.5013360381126404,0.93,0.8,0.0001
1575,0.38658103346824646,0.5012949109077454,0.93,0.8,0.0001
1576,0.3865698277950287,0.5012533068656921,0.93,0.8,0.0001
1577,0.3865581750869751,0.5012142062187195,0.93,0.8,0.0001
1578,0.38654613494873047,0.501177966594696,0.93,0.81,0.0001
1579,0.3865343928337097,0.5011383295059204,0.93,0.81,0.0001
1580,0.38652271032333374,0.5011132955551147,0.93,0.81,0.0001
1581,0.38651102781295776,0.5011259317398071,0.93,0.81,0.0001
1582,0.38649970293045044,0.5013436079025269,0.93,0.81,0.0001
1583,0.38648825883865356,0.5052275657653809,0.93,0.8,0.0001
1584,0.38647639751434326,0.5105260014533997,0.93,0.8,0.0001
1585,0.386464387178421,0.5108556151390076,0.93,0.8,0.0001
1586,0.38645240664482117,0.5108206868171692,0.93,0.8,0.0001
1587,0.3864404261112213,0.5107729434967041,0.93,0.8,0.0001
1588,0.38642773032188416,0.510720431804657,0.93,0.8,0.0001
1589,0.38641536235809326,0.5106542110443115,0.93,0.8,0.0001
1590,0.3864035904407501,0.5105901956558228,0.93,0.8,0.0001
1591,0.386391282081604,0.5105162262916565,0.93,0.8,0.0001
1592,0.3863790035247803,0.5104418992996216,0.93,0.8,0.0001
1593,0.38636675477027893,0.5103824138641357,0.93,0.8,0.0001
1594,0.3863547444343567,0.5103312730789185,0.93,0.8,0.0001
1595,0.3863425552845001,0.5102794766426086,0.93,0.8,0.0001
1596,0.38633015751838684,0.5102301836013794,0.93,0.8,0.0001
1597,0.38631778955459595,0.5101802945137024,0.93,0.8,0.0001
1598,0.3863055109977722,0.5101333260536194,0.93,0.8,0.0001
1599,0.3862927556037903,0.5100906491279602,0.93,0.8,0.0001
1600,0.38627976179122925,0.510047972202301,0.93,0.8,0.0001
1601,0.3862672746181488,0.5100036859512329,0.93,0.8,0.0001
1602,0.3862541913986206,0.5099605321884155,0.93,0.8,0.0001
1603,0.38624173402786255,0.5099201202392578,0.93,0.8,0.0001
1604,0.3862289786338806,0.5098767876625061,0.93,0.8,0.0001
1605,0.38621586561203003,0.5098332166671753,0.93,0.8,0.0001
1606,0.38620272278785706,0.5097941756248474,0.93,0.8,0.0001
1607,0.38618984818458557,0.5097478628158569,0.93,0.8,0.0001
1608,0.3861769139766693,0.509712815284729,0.93,0.8,0.0001
1609,0.3861638307571411,0.5096771717071533,0.93,0.8,0.0001
1610,0.3861507475376129,0.5096436738967896,0.93,0.8,0.0001
1611,0.38613778352737427,0.5096063017845154,0.93,0.8,0.0001
1612,0.38612478971481323,0.509574294090271,0.93,0.8,0.0001
1613,0.38611191511154175,0.5095489621162415,0.93,0.8,0.0001
1614,0.3860988914966583,0.5095213055610657,0.93,0.8,0.0001
1615,0.3860863447189331,0.5094958543777466,0.93,0.8,0.0001
1616,0.38607296347618103,0.5094743967056274,0.93,0.8,0.0001
1617,0.38606056571006775,0.5094583034515381,0.93,0.8,0.0001
1618,0.38604795932769775,0.5094417929649353,0.93,0.8,0.0001
1619,0.38603565096855164,0.5094344615936279,0.93,0.8,0.0001
1620,0.3860219717025757,0.5094249248504639,0.93,0.8,0.0001
1621,0.38600918650627136,0.5094160437583923,0.93,0.8,0.0001
1622,0.385996013879776,0.5094106793403625,0.93,0.8,0.0001
1623,0.38598302006721497,0.5094093680381775,0.93,0.8,0.0001
1624,0.3859703838825226,0.5094110369682312,0.93,0.8,0.0001
1625,0.3859574794769287,0.509411096572876,0.93,0.8,0.0001
1626,0.38594505190849304,0.5094107985496521,0.93,0.8,0.0001
1627,0.3859323263168335,0.5094057321548462,0.93,0.8,0.0001
1628,0.3859192728996277,0.5094091892242432,0.93,0.8,0.0001
1629,0.38590678572654724,0.5093995928764343,0.93,0.8,0.0001
1630,0.3858932852745056,0.5093993544578552,0.93,0.8,0.0001
1631,0.3858799338340759,0.5093972682952881,0.93,0.8,0.0001
1632,0.3858674168586731,0.5093931555747986,0.93,0.8,0.0001
1633,0.3858543336391449,0.5093885660171509,0.93,0.8,0.0001
1634,0.38584163784980774,0.5093793272972107,0.93,0.8,0.0001
1635,0.38582855463027954,0.509370744228363,0.93,0.8,0.0001
1636,0.38581565022468567,0.5093672275543213,0.93,0.8,0.0001
1637,0.3858027160167694,0.509360671043396,0.93,0.8,0.0001
1638,0.38579005002975464,0.5093567371368408,0.93,0.8,0.0001
1639,0.38577723503112793,0.5093534588813782,0.93,0.8,0.0001
1640,0.38576382398605347,0.5093485116958618,0.93,0.8,0.0001
1641,0.3857508599758148,0.5093483328819275,0.93,0.8,0.0001
1642,0.38573750853538513,0.5093461871147156,0.93,0.8,0.0001
1643,0.38572371006011963,0.5093454122543335,0.93,0.8,0.0001
1644,0.38571062684059143,0.5093435049057007,0.93,0.8,0.0001
1645,0.385697603225708,0.5093420743942261,0.93,0.8,0.0001
1646,0.38568416237831116,0.5093379020690918,0.93,0.8,0.0001
1647,0.38567107915878296,0.5093381404876709,0.93,0.8,0.0001
1648,0.3856576681137085,0.5093370079994202,0.93,0.8,0.0001
1649,0.3856441080570221,0.5093379020690918,0.93,0.8,0.0001
1650,0.38563114404678345,0.5093368291854858,0.93,0.8,0.0001
1651,0.3856174945831299,0.5093348622322083,0.93,0.8,0.0001
1652,0.3856039345264435,0.5093392729759216,0.94,0.8,0.0001
1653,0.3855900466442108,0.5093346834182739,0.94,0.8,0.0001
1654,0.38557708263397217,0.509329080581665,0.94,0.8,0.0001
1655,0.38556328415870667,0.509324312210083,0.94,0.8,0.0001
1656,0.3855496644973755,0.5093216300010681,0.94,0.8,0.0001
1657,0.38553616404533386,0.5093105435371399,0.94,0.8,0.0001
1658,0.38552239537239075,0.5092950463294983,0.94,0.8,0.0001
1659,0.38550877571105957,0.5092812180519104,0.94,0.8,0.0001
1660,0.3854951560497284,0.509274959564209,0.94,0.8,0.0001
1661,0.3854813277721405,0.5092642307281494,0.94,0.8,0.0001
1662,0.38546764850616455,0.50925612449646,0.94,0.8,0.0001
1663,0.38545429706573486,0.5092589855194092,0.94,0.8,0.0001
1664,0.3854394555091858,0.509259045124054,0.94,0.8,0.0001
1665,0.3854255676269531,0.5092628002166748,0.94,0.8,0.0001
1666,0.3854115307331085,0.5092729330062866,0.94,0.8,0.0001
1667,0.385397344827652,0.5092782974243164,0.94,0.8,0.0001
1668,0.38538309931755066,0.5092772841453552,0.94,0.8,0.0001
1669,0.3853686451911926,0.5092796087265015,0.94,0.8,0.0001
1670,0.3853548467159271,0.5092764496803284,0.94,0.8,0.0001
1671,0.38534119725227356,0.5092693567276001,0.94,0.8,0.0001
1672,0.385326623916626,0.5092596411705017,0.94,0.8,0.0001
1673,0.38531261682510376,0.5092447400093079,0.94,0.8,0.0001
1674,0.3852981626987457,0.5092340111732483,0.94,0.8,0.0001
1675,0.38528358936309814,0.5092316269874573,0.94,0.8,0.0001
1676,0.3852691352367401,0.5092270374298096,0.94,0.8,0.0001
1677,0.38525503873825073,0.5092290043830872,0.94,0.8,0.0001
1678,0.3852403163909912,0.509228527545929,0.94,0.8,0.0001
1679,0.3852260112762451,0.509230375289917,0.94,0.8,0.0001
1680,0.3852114975452423,0.5092352628707886,0.94,0.8,0.0001
1681,0.38519665598869324,0.5092429518699646,0.94,0.8,0.0001
1682,0.38518184423446655,0.5092514157295227,0.94,0.8,0.0001
1683,0.38516703248023987,0.5092535018920898,0.94,0.8,0.0001
1684,0.3851523697376251,0.5092632174491882,0.94,0.8,0.0001
1685,0.3851377069950104,0.5092504024505615,0.94,0.8,0.0001
1686,0.3851224184036255,0.5092352032661438,0.94,0.8,0.0001
1687,0.38510772585868835,0.509223997592926,0.94,0.8,0.0001
1688,0.3850923180580139,0.5092145204544067,0.94,0.8,0.0001
1689,0.38507750630378723,0.50921231508255,0.94,0.8,0.0001
1690,0.38506266474723816,0.5092233419418335,0.94,0.8,0.0001
1691,0.38504698872566223,0.5092326998710632,0.94,0.8,0.0001
1692,0.38503238558769226,0.509240984916687,0.94,0.8,0.0001
1693,0.3850165903568268,0.509246826171875,0.94,0.8,0.0001
1694,0.38500186800956726,0.5092463493347168,0.94,0.8,0.0001
1695,0.38498616218566895,0.5092476010322571,0.94,0.8,0.0001
1696,0.3849707543849945,0.5092616081237793,0.94,0.8,0.0001
1697,0.38495510816574097,0.509257972240448,0.94,0.8,0.0001
1698,0.38494011759757996,0.5092588663101196,0.94,0.8,0.0001
1699,0.3849239647388458,0.5092509984970093,0.94,0.8,0.0001
1700,0.3849087953567505,0.5092417001724243,0.94,0.8,0.0001
1701,0.3848930597305298,0.5092297196388245,0.94,0.8,0.0001
1702,0.3848772346973419,0.509233832359314,0.94,0.8,0.0001
1703,0.3848617672920227,0.5092396140098572,0.94,0.8,0.0001
1704,0.3848460018634796,0.509238600730896,0.94,0.8,0.0001
1705,0.3848293721675873,0.5092483758926392,0.94,0.8,0.0001
1706,0.3848138451576233,0.5092662572860718,0.94,0.8,0.0001
1707,0.3847978115081787,0.5092751383781433,0.94,0.8,0.0001
1708,0.38478100299835205,0.5092743039131165,0.94,0.8,0.0001
1709,0.3847649097442627,0.5092735886573792,0.94,0.8,0.0001
1710,0.3847487270832062,0.5092695355415344,0.94,0.8,0.0001
1711,0.3847323954105377,0.5092710256576538,0.94,0.8,0.0001
1712,0.3847168982028961,0.5092708468437195,0.94,0.8,0.0001
1713,0.3847002387046814,0.5092779397964478,0.94,0.8,0.0001
1714,0.3846837282180786,0.5092820525169373,0.94,0.8,0.0001
1715,0.38466715812683105,0.5092776417732239,0.94,0.8,0.0001
1716,0.3846496343612671,0.5092809796333313,0.94,0.8,0.0001
1717,0.3846330940723419,0.5092800259590149,0.94,0.8,0.0001
1718,0.38461604714393616,0.5092910528182983,0.94,0.8,0.0001
1719,0.38459956645965576,0.5093085765838623,0.94,0.8,0.0001
1720,0.3845827579498291,0.5093172192573547,0.94,0.8,0.0001
1721,0.3845657408237457,0.5093267560005188,0.94,0.8,0.0001
1722,0.3845491111278534,0.5093317031860352,0.94,0.8,0.0001
1723,0.38453200459480286,0.5093368291854858,0.94,0.8,0.0001
1724,0.38451412320137024,0.5093355178833008,0.94,0.8,0.0001
1725,0.3844970762729645,0.5093294978141785,0.94,0.8,0.0001
1726,0.3844797611236572,0.5093305706977844,0.94,0.8,0.0001
1727,0.3844618499279022,0.5093351006507874,0.94,0.79,0.0001
1728,0.3844447433948517,0.5093480944633484,0.94,0.79,0.0001
1729,0.3844267725944519,0.5093632340431213,0.94,0.79,0.0001
1730,0.3844088017940521,0.5093644261360168,0.94,0.79,0.0001
1731,0.38439086079597473,0.5093768835067749,0.94,0.79,0.0001
1732,0.3843728005886078,0.5093708634376526,0.94,0.79,0.0001
1733,0.3843548595905304,0.5093793272972107,0.94,0.79,0.0001
1734,0.38433700799942017,0.5093806385993958,0.94,0.79,0.0001
1735,0.38431912660598755,0.5093817710876465,0.94,0.79,0.0001
1736,0.38430091738700867,0.5093937516212463,0.94,0.79,0.0001
1737,0.38428276777267456,0.5094029903411865,0.94,0.79,0.0001
1738,0.3842639923095703,0.509432852268219,0.94,0.79,0.0001
1739,0.38424551486968994,0.5094473958015442,0.94,0.79,0.0001
1740,0.3842259645462036,0.509452223777771,0.94,0.79,0.0001
1741,0.3842078745365143,0.5094321370124817,0.94,0.79,0.0001
1742,0.3841889202594757,0.5094184279441833,0.94,0.79,0.0001
1743,0.38417062163352966,0.5094170570373535,0.94,0.79,0.0001
1744,0.38415107131004333,0.5094037652015686,0.94,0.79,0.0001
1745,0.3841319680213928,0.5094220638275146,0.94,0.79,0.0001
1746,0.3841126263141632,0.5094730854034424,0.94,0.79,0.0001
1747,0.3840930461883545,0.5094858407974243,0.94,0.79,0.0001
1748,0.38407301902770996,0.5094954371452332,0.94,0.79,0.0001
1749,0.38405346870422363,0.5094987750053406,0.94,0.79,0.0001
1750,0.38403356075286865,0.5095019936561584,0.94,0.79,0.0001
1751,0.38401368260383606,0.509505033493042,0.94,0.79,0.0001
