,train loss,val loss,train acc,val acc,lr
0,0.6912006139755249,0.6875404119491577,0.58,0.69,0.001
1,0.6840546131134033,0.6829690337181091,0.69,0.68,0.001
2,0.6768310070037842,0.6779615879058838,0.71,0.69,0.001
3,0.6690127849578857,0.6720225811004639,0.74,0.69,0.001
4,0.6599240899085999,0.6645216345787048,0.77,0.71,0.001
5,0.6486585736274719,0.6546873450279236,0.77,0.68,0.001
6,0.6340199112892151,0.6418407559394836,0.77,0.65,0.001
7,0.6146712303161621,0.6269766092300415,0.73,0.64,0.001
8,0.590709924697876,0.6215430498123169,0.73,0.64,0.001
9,0.5735828876495361,0.6402656435966492,0.71,0.64,0.001
10,0.5860976576805115,0.6194670796394348,0.7,0.64,0.001
11,0.5680860877037048,0.5988158583641052,0.71,0.67,0.001
12,0.5495780110359192,0.5874316096305847,0.72,0.71,0.001
13,0.5356522798538208,0.5811053514480591,0.74,0.73,0.001
14,0.5273016691207886,0.5776477456092834,0.82,0.72,0.001
15,0.5256051421165466,0.5701490640640259,0.8,0.72,0.001
16,0.5177255272865295,0.5611571073532104,0.8,0.76,0.001
17,0.5103352665901184,0.5577085614204407,0.81,0.77,0.001
18,0.5116090774536133,0.5561748743057251,0.8,0.77,0.001
19,0.5078620314598083,0.5540292859077454,0.79,0.77,0.001
20,0.5004878640174866,0.5514156222343445,0.82,0.74,0.001
21,0.49892720580101013,0.5574749112129211,0.81,0.75,0.001
22,0.4884963929653168,0.56778883934021,0.82,0.71,0.001
23,0.49198925495147705,0.5615667104721069,0.8,0.75,0.001
24,0.4843515157699585,0.54986172914505,0.83,0.75,0.001
25,0.49302566051483154,0.5628796219825745,0.79,0.74,0.001
26,0.48333603143692017,0.5677142143249512,0.83,0.72,0.001
27,0.48646897077560425,0.5554479360580444,0.83,0.74,0.001
28,0.4772486388683319,0.5507087707519531,0.81,0.73,0.001
29,0.4794825613498688,0.5537500381469727,0.82,0.75,0.001
30,0.4740947484970093,0.5529916286468506,0.82,0.75,0.001
31,0.47669270634651184,0.5512650012969971,0.82,0.76,0.001
32,0.47261250019073486,0.5504587292671204,0.83,0.74,0.001
33,0.4710663855075836,0.550055980682373,0.82,0.74,0.001
34,0.4689386785030365,0.5506590604782104,0.82,0.76,0.001
35,0.46394971013069153,0.5534546375274658,0.86,0.75,0.001
36,0.46538594365119934,0.551934003829956,0.88,0.76,0.001
37,0.4611393213272095,0.5499305129051208,0.88,0.75,0.001
38,0.46111151576042175,0.5481493473052979,0.85,0.77,0.001
39,0.45730099081993103,0.5464915633201599,0.87,0.76,0.001
40,0.45427313446998596,0.5439202785491943,0.89,0.76,0.001
41,0.45260855555534363,0.5416929721832275,0.89,0.77,0.001
42,0.4506776034832001,0.5406066179275513,0.87,0.77,0.001
43,0.44875529408454895,0.540805995464325,0.87,0.77,0.001
44,0.4457131326198578,0.5416225790977478,0.88,0.77,0.001
45,0.44399142265319824,0.5405173301696777,0.89,0.79,0.001
46,0.4422152042388916,0.5391157865524292,0.89,0.79,0.001
47,0.440818190574646,0.5382026433944702,0.89,0.77,0.001
48,0.4378588795661926,0.5368683338165283,0.89,0.78,0.001
49,0.4368915259838104,0.5327726602554321,0.89,0.79,0.001
50,0.4361008405685425,0.5339116454124451,0.88,0.78,0.001
51,0.4331783950328827,0.5386872887611389,0.89,0.76,0.001
52,0.43336278200149536,0.5338186025619507,0.89,0.78,0.001
53,0.4315822124481201,0.531951367855072,0.89,0.79,0.001
54,0.43053463101387024,0.5359961986541748,0.89,0.76,0.001
55,0.4300542175769806,0.5295408368110657,0.88,0.78,0.001
56,0.4279986321926117,0.5288877487182617,0.89,0.78,0.001
57,0.4272345006465912,0.5334023833274841,0.89,0.76,0.001
58,0.4265974760055542,0.5296322107315063,0.88,0.77,0.001
59,0.42496854066848755,0.5274652242660522,0.89,0.79,0.001
60,0.4243471026420593,0.5282651782035828,0.89,0.77,0.001
61,0.42324885725975037,0.5273652672767639,0.88,0.77,0.001
62,0.4221147894859314,0.5262325406074524,0.89,0.79,0.001
63,0.42150813341140747,0.5280340909957886,0.89,0.77,0.001
64,0.42044103145599365,0.5283952951431274,0.89,0.77,0.001
65,0.4198358952999115,0.5255066156387329,0.89,0.77,0.001
66,0.41902661323547363,0.5260562300682068,0.89,0.77,0.001
67,0.4182022213935852,0.5286511182785034,0.89,0.77,0.001
68,0.4176395833492279,0.5268035531044006,0.9,0.78,0.001
69,0.4167262613773346,0.5255081653594971,0.89,0.79,0.001
70,0.41605159640312195,0.525912880897522,0.89,0.78,0.001
71,0.4154983460903168,0.5241830348968506,0.9,0.79,0.001
72,0.41469043493270874,0.5239086747169495,0.9,0.79,0.001
73,0.4140376150608063,0.5239351391792297,0.9,0.78,0.001
74,0.4136681854724884,0.5220773816108704,0.9,0.78,0.001
75,0.4134253263473511,0.5237889289855957,0.89,0.78,0.001
76,0.4136981964111328,0.5220792293548584,0.9,0.78,0.001
77,0.41477492451667786,0.5320274233818054,0.89,0.78,0.001
78,0.4240129888057709,0.5174543261528015,0.9,0.8,0.001
79,0.45196235179901123,0.5528605580329895,0.86,0.75,0.001
80,0.4652967154979706,0.523725152015686,0.81,0.79,0.001
81,0.4194249212741852,0.508924126625061,0.89,0.8,0.001
82,0.43002915382385254,0.520505428314209,0.87,0.78,0.001
83,0.4272722005844116,0.5255346894264221,0.88,0.79,0.001
84,0.41756054759025574,0.541161298751831,0.88,0.77,0.001
85,0.43067222833633423,0.5335333347320557,0.88,0.78,0.001
86,0.4291183054447174,0.5127704739570618,0.87,0.79,0.001
87,0.417777419090271,0.5151705741882324,0.89,0.79,0.001
88,0.43127238750457764,0.5155484676361084,0.88,0.78,0.001
89,0.42862045764923096,0.5122439861297607,0.89,0.8,0.001
90,0.42947590351104736,0.503441333770752,0.87,0.81,0.001
91,0.4199380576610565,0.513744056224823,0.89,0.79,0.001
92,0.42301952838897705,0.4956752061843872,0.87,0.81,0.001
93,0.41293489933013916,0.5004405379295349,0.9,0.81,0.001
94,0.4081103503704071,0.5082144141197205,0.9,0.8,0.001
95,0.41830605268478394,0.5114524960517883,0.88,0.8,0.001
96,0.4136800765991211,0.5159100890159607,0.9,0.82,0.001
97,0.4243703782558441,0.5119507312774658,0.89,0.8,0.001
98,0.4195258617401123,0.5097602605819702,0.88,0.79,0.001
99,0.4188452661037445,0.5166663527488708,0.88,0.79,0.001
100,0.4123491048812866,0.5194380879402161,0.89,0.79,0.001
101,0.4112490117549896,0.5161927938461304,0.9,0.78,0.001
102,0.41299885511398315,0.5169749855995178,0.9,0.79,0.001
103,0.40978899598121643,0.514217734336853,0.9,0.79,0.001
104,0.4098999500274658,0.5122345685958862,0.89,0.8,0.001
105,0.4131520092487335,0.5206665992736816,0.89,0.78,0.001
106,0.41007769107818604,0.5235553979873657,0.89,0.78,0.001
107,0.4106961786746979,0.5217128992080688,0.9,0.79,0.001
108,0.4118436872959137,0.5189276337623596,0.9,0.78,0.001
109,0.410334050655365,0.5181381106376648,0.9,0.79,0.001
110,0.40942084789276123,0.5135338306427002,0.9,0.8,0.001
111,0.41026079654693604,0.517465353012085,0.9,0.78,0.001
112,0.40807440876960754,0.5189464688301086,0.9,0.79,0.001
113,0.4085054397583008,0.5165104269981384,0.9,0.79,0.001
114,0.40803277492523193,0.5101962685585022,0.9,0.8,0.001
115,0.40649595856666565,0.5055437684059143,0.9,0.8,0.001
116,0.406722754240036,0.5042322278022766,0.91,0.8,0.001
117,0.40582960844039917,0.5049234628677368,0.91,0.81,0.001
118,0.4052197337150574,0.5047087669372559,0.91,0.81,0.001
119,0.4050846993923187,0.502185583114624,0.9,0.81,0.001
120,0.4041619896888733,0.4999856650829315,0.91,0.81,0.001
121,0.40420323610305786,0.5001508593559265,0.91,0.81,0.001
122,0.4032783806324005,0.5012364387512207,0.91,0.81,0.001
123,0.40327194333076477,0.501083254814148,0.91,0.81,0.001
124,0.4028078317642212,0.49991270899772644,0.91,0.81,0.001
125,0.40232279896736145,0.49927034974098206,0.91,0.81,0.001
126,0.4025222659111023,0.4999822974205017,0.91,0.81,0.001
127,0.4019377529621124,0.5007224678993225,0.91,0.81,0.001
128,0.40189307928085327,0.5006923675537109,0.91,0.8,0.001
129,0.4018813669681549,0.49972474575042725,0.91,0.81,0.001
130,0.4015459418296814,0.49952423572540283,0.91,0.81,0.001
131,0.401550829410553,0.500225305557251,0.91,0.81,0.001
132,0.4013957679271698,0.5003944635391235,0.91,0.81,0.001
133,0.40110695362091064,0.5000520944595337,0.91,0.8,0.001
134,0.40104857087135315,0.4994749426841736,0.91,0.81,0.001
135,0.40079814195632935,0.4992251992225647,0.91,0.81,0.001
136,0.40054646134376526,0.4995391368865967,0.91,0.81,0.001
137,0.4004737138748169,0.4995785057544708,0.91,0.81,0.001
138,0.40026524662971497,0.49919751286506653,0.91,0.81,0.001
139,0.40006375312805176,0.49885767698287964,0.91,0.81,0.001
140,0.3999919593334198,0.4986245632171631,0.91,0.81,0.001
141,0.3998442590236664,0.49858033657073975,0.91,0.81,0.001
142,0.3996758759021759,0.49873417615890503,0.91,0.81,0.001
143,0.3995971977710724,0.49879100918769836,0.91,0.81,0.001
144,0.3994795083999634,0.49865299463272095,0.91,0.81,0.001
145,0.399318665266037,0.49854087829589844,0.91,0.81,0.001
146,0.3992159366607666,0.4985392093658447,0.91,0.81,0.001
147,0.39911580085754395,0.4986114501953125,0.91,0.81,0.001
148,0.398967444896698,0.4987501800060272,0.91,0.81,0.001
149,0.3988511562347412,0.4987797141075134,0.91,0.81,0.001
150,0.39875176548957825,0.4986020624637604,0.91,0.81,0.001
151,0.3986203372478485,0.49845650792121887,0.91,0.81,0.001
152,0.39848583936691284,0.49853038787841797,0.91,0.81,0.001
153,0.3983711004257202,0.49870041012763977,0.92,0.81,0.001
154,0.39823827147483826,0.49877819418907166,0.92,0.81,0.001
155,0.3980918824672699,0.4985853433609009,0.92,0.82,0.001
156,0.3979493975639343,0.498118132352829,0.92,0.82,0.001
157,0.397798091173172,0.4977407157421112,0.92,0.81,0.001
158,0.3976406157016754,0.49773266911506653,0.92,0.81,0.001
159,0.3974775969982147,0.4979723393917084,0.92,0.81,0.001
160,0.39730218052864075,0.4981859624385834,0.92,0.81,0.001
161,0.39712759852409363,0.4981004297733307,0.92,0.81,0.001
162,0.3969423770904541,0.4977152943611145,0.92,0.81,0.001
163,0.3967394232749939,0.49732762575149536,0.92,0.81,0.001
164,0.3965372145175934,0.49712562561035156,0.92,0.81,0.001
165,0.39632147550582886,0.49722039699554443,0.92,0.81,0.001
166,0.39609581232070923,0.49752941727638245,0.92,0.82,0.001
167,0.395858496427536,0.4977942407131195,0.92,0.82,0.001
168,0.3956213891506195,0.4978063702583313,0.92,0.82,0.001
169,0.39536839723587036,0.4975849986076355,0.92,0.82,0.001
170,0.3951067626476288,0.4973626434803009,0.92,0.82,0.001
171,0.39483919739723206,0.4973490834236145,0.93,0.82,0.001
172,0.39455848932266235,0.49775275588035583,0.93,0.82,0.001
173,0.3942684829235077,0.49819546937942505,0.93,0.82,0.001
174,0.3939782381057739,0.49832209944725037,0.93,0.82,0.001
175,0.3936809301376343,0.4980221688747406,0.93,0.82,0.001
176,0.393380343914032,0.49803271889686584,0.93,0.82,0.001
177,0.3930824398994446,0.4985555410385132,0.93,0.81,0.001
178,0.3927827477455139,0.49920594692230225,0.93,0.81,0.001
179,0.3924943208694458,0.49885639548301697,0.93,0.81,0.001
180,0.39222583174705505,0.4992368817329407,0.93,0.81,0.001
181,0.39209356904029846,0.49976447224617004,0.93,0.81,0.001
182,0.3925911784172058,0.5010814070701599,0.93,0.81,0.001
183,0.3988853394985199,0.4975091516971588,0.92,0.81,0.001
184,0.42399856448173523,0.5007647275924683,0.87,0.81,0.001
185,0.44019508361816406,0.4943504333496094,0.87,0.81,0.001
186,0.41206714510917664,0.9787521362304688,0.9,0.33,0.001
187,0.9671347141265869,1.008971095085144,0.34,0.29,0.001
188,1.000949740409851,0.6005517244338989,0.28,0.71,0.001
189,0.5345163941383362,0.5942485332489014,0.77,0.71,0.001
190,0.5258588194847107,0.568800151348114,0.79,0.75,0.001
191,0.5592899918556213,0.5803865194320679,0.74,0.72,0.001
192,0.5248492360115051,0.512210488319397,0.78,0.8,0.001
193,0.4840984046459198,0.5498740673065186,0.83,0.76,0.001
194,0.5132535099983215,0.5807179808616638,0.8,0.73,0.001
195,0.49352648854255676,1.0202281475067139,0.82,0.29,0.001
196,1.0906169414520264,0.6667882800102234,0.21,0.65,0.001
197,0.5761396884918213,0.6309770941734314,0.74,0.68,0.001
198,0.623261570930481,0.545452892780304,0.69,0.77,0.001
199,0.5487059950828552,1.018183946609497,0.75,0.27,0.001
200,0.9013240337371826,0.6645788550376892,0.4,0.65,0.001
201,0.6338365077972412,0.6732613444328308,0.68,0.64,0.001
202,0.6232607960700989,0.6647534370422363,0.69,0.65,0.001
203,0.6232414245605469,0.6757301092147827,0.69,0.64,0.001
204,0.6231248378753662,0.6828921437263489,0.69,0.63,0.001
205,0.6225059628486633,0.6732482314109802,0.69,0.64,0.001
206,0.611671507358551,0.6731691956520081,0.7,0.64,0.001
207,0.6153486371040344,0.6764234900474548,0.69,0.63,0.001
208,0.6188705563545227,0.671613872051239,0.7,0.64,0.001
209,0.6295492649078369,0.6563072204589844,0.68,0.66,0.001
210,0.6325567364692688,0.6545143723487854,0.68,0.66,0.001
211,0.6332297325134277,0.6538130044937134,0.68,0.66,0.001
212,0.6132621169090271,0.6434588432312012,0.7,0.67,0.001
213,0.6232599020004272,0.6533100008964539,0.69,0.66,0.001
214,0.6232594847679138,0.6632615923881531,0.69,0.65,0.001
215,0.6232593655586243,0.6732571125030518,0.69,0.64,0.001
216,0.6232591271400452,0.6732556819915771,0.69,0.64,0.001
217,0.6232584118843079,0.673251748085022,0.69,0.64,0.001
218,0.6232559680938721,0.6732393503189087,0.69,0.64,0.001
219,0.6232513785362244,0.673219621181488,0.69,0.64,0.001
220,0.6232392191886902,0.6731515526771545,0.69,0.64,0.001
221,0.6231566071510315,0.6730133295059204,0.69,0.64,0.001
222,0.6230401992797852,0.6729799509048462,0.69,0.64,0.001
223,0.6229327321052551,0.673239529132843,0.69,0.64,0.001
224,0.6228576302528381,0.6736850738525391,0.69,0.64,0.001
225,0.6228810548782349,0.6735808849334717,0.69,0.64,0.001
226,0.6228744983673096,0.6727882623672485,0.69,0.64,0.001
227,0.6227719783782959,0.6727850437164307,0.69,0.64,0.001
228,0.622820258140564,0.6727842092514038,0.69,0.64,0.001
229,0.6228440403938293,0.6727807521820068,0.69,0.64,0.001
230,0.6228512525558472,0.6727714538574219,0.69,0.64,0.001
231,0.6228474378585815,0.6727551221847534,0.69,0.64,0.001
232,0.6228359341621399,0.6727313995361328,0.69,0.64,0.001
233,0.6228181719779968,0.6727004051208496,0.69,0.64,0.001
234,0.6227943897247314,0.6726618409156799,0.69,0.64,0.001
235,0.6227648854255676,0.6726154088973999,0.69,0.64,0.001
236,0.6227299571037292,0.6725608706474304,0.69,0.64,0.001
237,0.6226896643638611,0.6724979281425476,0.69,0.64,0.001
238,0.6226443648338318,0.6724264025688171,0.69,0.64,0.001
239,0.6225941777229309,0.6723458170890808,0.69,0.64,0.001
240,0.6225391030311584,0.6722554564476013,0.69,0.64,0.001
241,0.6224792003631592,0.6721548438072205,0.69,0.64,0.001
242,0.6224135756492615,0.6720422506332397,0.69,0.64,0.001
243,0.622341513633728,0.671915590763092,0.69,0.64,0.001
244,0.6222612261772156,0.671771764755249,0.69,0.64,0.001
245,0.6221702694892883,0.6716066598892212,0.69,0.64,0.001
246,0.6220656037330627,0.6714149713516235,0.69,0.64,0.001
247,0.6219429969787598,0.6711888909339905,0.69,0.64,0.001
248,0.6217966079711914,0.6709182858467102,0.69,0.64,0.001
249,0.6216187477111816,0.67058926820755,0.69,0.64,0.001
250,0.6213991641998291,0.670183002948761,0.69,0.64,0.001
251,0.621123194694519,0.6696727871894836,0.69,0.64,0.001
252,0.6207696199417114,0.6690200567245483,0.69,0.64,0.001
253,0.6203078627586365,0.6681677103042603,0.69,0.64,0.001
254,0.6196915507316589,0.6670311689376831,0.69,0.64,0.001
255,0.618850827217102,0.6654843688011169,0.69,0.64,0.001
256,0.6176800727844238,0.6633437871932983,0.69,0.64,0.001
257,0.6160250306129456,0.6603573560714722,0.69,0.64,0.001
258,0.6136795282363892,0.6562318205833435,0.69,0.64,0.001
259,0.6104342341423035,0.6507762670516968,0.69,0.64,0.001
260,0.6062694191932678,0.6443451642990112,0.69,0.64,0.001
261,0.6017754673957825,0.6385347247123718,0.69,0.64,0.001
262,0.5980073809623718,0.6351809501647949,0.7,0.64,0.001
263,0.5938259959220886,0.632012128829956,0.71,0.63,0.001
264,0.5857198238372803,0.6293838620185852,0.72,0.62,0.001
265,0.5750613212585449,0.6274547576904297,0.74,0.61,0.001
266,0.5694835186004639,0.6223454475402832,0.74,0.64,0.001
267,0.5681681632995605,0.640329897403717,0.77,0.65,0.001
268,0.5781727433204651,0.6218006014823914,0.7,0.61,0.001
269,0.562884509563446,0.6274146437644958,0.74,0.66,0.001
270,0.5734632611274719,0.6443502902984619,0.76,0.64,0.001
271,0.5800873637199402,0.6525586843490601,0.7,0.64,0.001
272,0.5914397835731506,0.6451730132102966,0.7,0.65,0.001
273,0.5806379914283752,0.6207375526428223,0.7,0.63,0.001
274,0.5561630129814148,0.627585232257843,0.75,0.69,0.001
275,0.5811365842819214,0.6101065278053284,0.75,0.67,0.001
276,0.5485596060752869,0.6215885877609253,0.77,0.61,0.001
277,0.5516300797462463,0.6287052631378174,0.75,0.6,0.001
278,0.5517723560333252,0.5960497856140137,0.74,0.69,0.001
279,0.5259194374084473,0.5901097059249878,0.81,0.72,0.001
280,0.5436186790466309,0.5871531963348389,0.76,0.72,0.001
281,0.5204145312309265,0.6008433699607849,0.8,0.68,0.001
282,0.5250933766365051,0.5871473550796509,0.79,0.7,0.0007937005259840996
283,0.5154392123222351,0.5740488171577454,0.83,0.73,0.0007937005259840996
284,0.5129268765449524,0.5725729465484619,0.81,0.73,0.0007937005259840996
285,0.5120290517807007,0.5743334293365479,0.78,0.72,0.0007937005259840996
286,0.5069659352302551,0.580629289150238,0.81,0.71,0.0007937005259840996
287,0.5016594529151917,0.5880093574523926,0.81,0.66,0.0007937005259840996
288,0.5013548135757446,0.580683708190918,0.83,0.69,0.0007937005259840996
289,0.4932342767715454,0.5671971440315247,0.82,0.72,0.0007937005259840996
290,0.4879601299762726,0.5605486035346985,0.83,0.73,0.0007937005259840996
291,0.4840508997440338,0.564561665058136,0.8,0.72,0.0007937005259840996
292,0.47737178206443787,0.5695026516914368,0.82,0.71,0.0007937005259840996
293,0.47449710965156555,0.5599741339683533,0.84,0.72,0.0007937005259840996
294,0.4676591157913208,0.5531913042068481,0.88,0.72,0.0007937005259840996
295,0.4668395519256592,0.5567160844802856,0.87,0.74,0.0007937005259840996
296,0.4597717523574829,0.5575014352798462,0.85,0.74,0.0007937005259840996
297,0.4615614414215088,0.5513240098953247,0.85,0.73,0.0007937005259840996
298,0.45582064986228943,0.5473816394805908,0.86,0.71,0.0007937005259840996
299,0.45612141489982605,0.5536946654319763,0.87,0.73,0.0007937005259840996
300,0.4544861912727356,0.5509399175643921,0.87,0.73,0.0007937005259840996
301,0.4511423408985138,0.5450374484062195,0.87,0.75,0.0007937005259840996
302,0.45347923040390015,0.5509737133979797,0.87,0.73,0.0007937005259840996
303,0.44992730021476746,0.551069974899292,0.87,0.73,0.0007937005259840996
304,0.44914570450782776,0.5410646796226501,0.88,0.75,0.0007937005259840996
305,0.4502899944782257,0.5478036403656006,0.87,0.74,0.0007937005259840996
306,0.4469946622848511,0.5457155704498291,0.88,0.75,0.0007937005259840996
307,0.44687679409980774,0.5407610535621643,0.88,0.76,0.0007937005259840996
308,0.4458322525024414,0.5443229079246521,0.87,0.74,0.0007937005259840996
309,0.44292137026786804,0.5489930510520935,0.89,0.74,0.0007937005259840996
310,0.4444035291671753,0.5425847768783569,0.88,0.74,0.0007937005259840996
311,0.44331833720207214,0.5460330843925476,0.89,0.75,0.0007937005259840996
312,0.44122037291526794,0.5446776747703552,0.9,0.76,0.0007937005259840996
313,0.4409528076648712,0.5431323051452637,0.88,0.76,0.0007937005259840996
314,0.44020625948905945,0.5499853491783142,0.88,0.74,0.0007937005259840996
315,0.4401993453502655,0.5467336177825928,0.89,0.74,0.0007937005259840996
316,0.4382259249687195,0.5455922484397888,0.89,0.76,0.0007937005259840996
317,0.4375174343585968,0.5477684736251831,0.89,0.74,0.0007937005259840996
318,0.4375360608100891,0.5460103154182434,0.9,0.74,0.0007937005259840996
319,0.4363124966621399,0.5480924844741821,0.89,0.74,0.0007937005259840996
320,0.4359052777290344,0.5459874272346497,0.9,0.75,0.0007937005259840996
321,0.4347984194755554,0.5446881651878357,0.9,0.75,0.0007937005259840996
322,0.43461108207702637,0.546511173248291,0.9,0.74,0.0007937005259840996
323,0.4338206350803375,0.5452882647514343,0.9,0.74,0.0007937005259840996
324,0.43365904688835144,0.5460564494132996,0.9,0.75,0.0007937005259840996
325,0.4328634738922119,0.5428906083106995,0.9,0.75,0.0007937005259840996
326,0.4327225089073181,0.5455058813095093,0.9,0.76,0.0007937005259840996
327,0.43207088112831116,0.5433263182640076,0.9,0.75,0.0007937005259840996
328,0.4320962429046631,0.5450482368469238,0.9,0.75,0.0007937005259840996
329,0.4330610930919647,0.538277268409729,0.89,0.76,0.0007937005259840996
330,0.43485474586486816,0.5436351299285889,0.87,0.77,0.0007937005259840996
331,0.43572551012039185,0.5406102538108826,0.89,0.76,0.0007937005259840996
332,0.43111488223075867,0.5435193777084351,0.91,0.75,0.0007937005259840996
333,0.4291363060474396,0.5412696003913879,0.9,0.76,0.0007937005259840996
334,0.4285818040370941,0.538750410079956,0.9,0.76,0.0007937005259840996
335,0.428966224193573,0.5422382354736328,0.9,0.76,0.0007937005259840996
336,0.42801499366760254,0.5410519242286682,0.9,0.75,0.0007937005259840996
337,0.42695000767707825,0.5396400690078735,0.9,0.76,0.0007937005259840996
338,0.42641928791999817,0.540179431438446,0.91,0.76,0.0007937005259840996
339,0.4264647662639618,0.538777232170105,0.9,0.76,0.0007937005259840996
340,0.42649567127227783,0.5404841899871826,0.91,0.76,0.0007937005259840996
341,0.4259367287158966,0.5373287796974182,0.9,0.77,0.0007937005259840996
342,0.42507004737854004,0.5390473008155823,0.9,0.76,0.0007937005259840996
343,0.4239184856414795,0.53948575258255,0.9,0.76,0.0007937005259840996
344,0.4234373867511749,0.5371558666229248,0.9,0.76,0.0007937005259840996
345,0.42302340269088745,0.5374552607536316,0.91,0.76,0.0007937005259840996
346,0.4229126274585724,0.537107527256012,0.91,0.77,0.0007937005259840996
347,0.4237222671508789,0.5358752012252808,0.91,0.77,0.0007937005259840996
348,0.42594704031944275,0.532101035118103,0.91,0.76,0.0007937005259840996
349,0.43675515055656433,0.5794376730918884,0.87,0.71,0.0007937005259840996
350,0.4933103919029236,0.5151684880256653,0.83,0.82,0.0007937005259840996
351,0.44766974449157715,0.5321249961853027,0.86,0.78,0.0007937005259840996
352,0.48417603969573975,0.5295515656471252,0.82,0.79,0.0007937005259840996
353,0.4635903239250183,0.5443958044052124,0.83,0.76,0.0007937005259840996
354,0.45365479588508606,0.5682475566864014,0.84,0.71,0.0007937005259840996
355,0.48313018679618835,0.5549526214599609,0.82,0.75,0.0007937005259840996
356,0.4667050838470459,0.5684109330177307,0.83,0.73,0.0007937005259840996
357,0.4354665279388428,0.5802419781684875,0.89,0.73,0.0007937005259840996
358,0.4665355682373047,0.5601418018341064,0.84,0.73,0.0007937005259840996
359,0.46855828166007996,0.5381625294685364,0.84,0.78,0.0007937005259840996
360,0.4776342809200287,0.571693480014801,0.82,0.72,0.0007937005259840996
361,0.45120352506637573,0.5854551196098328,0.86,0.72,0.0007937005259840996
362,0.45142585039138794,0.5552615523338318,0.85,0.74,0.0007937005259840996
363,0.4334776699542999,0.5462371706962585,0.88,0.75,0.0007937005259840996
364,0.44930747151374817,0.544833779335022,0.84,0.75,0.0007937005259840996
365,0.4404294490814209,0.5439948439598083,0.86,0.77,0.0007937005259840996
366,0.43067309260368347,0.5399370193481445,0.88,0.76,0.0007937005259840996
367,0.43870121240615845,0.5421705842018127,0.87,0.75,0.0007937005259840996
368,0.43045204877853394,0.5467092394828796,0.89,0.75,0.0007937005259840996
369,0.43453824520111084,0.5434816479682922,0.88,0.75,0.0007937005259840996
370,0.43190380930900574,0.5321056246757507,0.9,0.77,0.0007937005259840996
371,0.43663257360458374,0.5356153249740601,0.88,0.76,0.0007937005259840996
372,0.42757922410964966,0.5384508371353149,0.89,0.75,0.0007937005259840996
373,0.4284389019012451,0.5373790264129639,0.9,0.77,0.0007937005259840996
374,0.4311974346637726,0.5366437435150146,0.89,0.76,0.0007937005259840996
375,0.4232380986213684,0.530265748500824,0.9,0.77,0.0007937005259840996
376,0.4286723732948303,0.5363045930862427,0.88,0.76,0.0007937005259840996
377,0.42242714762687683,0.5390967726707458,0.91,0.76,0.0007937005259840996
378,0.42497244477272034,0.5381801128387451,0.9,0.76,0.0007937005259840996
379,0.4247951805591583,0.5376372337341309,0.9,0.75,0.0007937005259840996
380,0.4199708104133606,0.5320690274238586,0.9,0.77,0.0007937005259840996
381,0.42427489161491394,0.5343543887138367,0.91,0.76,0.0007937005259840996
382,0.4215702712535858,0.5386302471160889,0.91,0.75,0.0007937005259840996
383,0.4199633002281189,0.5388790369033813,0.9,0.76,0.0006299605249474364
384,0.4219086766242981,0.5387616157531738,0.9,0.75,0.0006299605249474364
385,0.4193058907985687,0.5358730554580688,0.9,0.76,0.0006299605249474364
386,0.41917574405670166,0.5348900556564331,0.91,0.77,0.0006299605249474364
387,0.4192020297050476,0.5373068451881409,0.91,0.76,0.0006299605249474364
388,0.4174751937389374,0.5368520617485046,0.91,0.76,0.0006299605249474364
389,0.4189894497394562,0.5378753542900085,0.9,0.76,0.0006299605249474364
390,0.41665467619895935,0.5358930826187134,0.91,0.77,0.0006299605249474364
391,0.417366623878479,0.5360504388809204,0.91,0.77,0.0006299605249474364
392,0.41728976368904114,0.5383315682411194,0.91,0.76,0.0006299605249474364
393,0.4162899851799011,0.5384017825126648,0.91,0.76,0.0006299605249474364
394,0.4164510667324066,0.53774493932724,0.9,0.76,0.0006299605249474364
395,0.4151085913181305,0.5353710055351257,0.91,0.76,0.0006299605249474364
396,0.41584163904190063,0.5364632606506348,0.91,0.76,0.0006299605249474364
397,0.41476163268089294,0.5377130508422852,0.91,0.76,0.0006299605249474364
398,0.41475993394851685,0.5385006666183472,0.91,0.76,0.0006299605249474364
399,0.4141024053096771,0.536941647529602,0.91,0.76,0.0006299605249474364
400,0.4140627980232239,0.5366469025611877,0.91,0.76,0.0006299605249474364
401,0.41388434171676636,0.5379332304000854,0.91,0.76,0.0006299605249474364
402,0.4132677912712097,0.5367712378501892,0.91,0.76,0.0006299605249474364
403,0.41311705112457275,0.5349993109703064,0.91,0.76,0.0006299605249474364
404,0.41266104578971863,0.5340322256088257,0.92,0.76,0.0006299605249474364
405,0.4126114547252655,0.5349507331848145,0.92,0.76,0.0006299605249474364
406,0.411958247423172,0.5354287624359131,0.92,0.76,0.0006299605249474364
407,0.4117710590362549,0.5345339775085449,0.92,0.76,0.0006299605249474364
408,0.41136038303375244,0.5336160659790039,0.92,0.76,0.0006299605249474364
409,0.411175012588501,0.5342233777046204,0.92,0.76,0.0006299605249474364
410,0.41057753562927246,0.5332988500595093,0.92,0.76,0.0006299605249474364
411,0.4103755056858063,0.5322487950325012,0.92,0.77,0.0006299605249474364
412,0.40993720293045044,0.5319660305976868,0.92,0.77,0.0006299605249474364
413,0.4095975160598755,0.5332566499710083,0.92,0.76,0.0006299605249474364
414,0.40912148356437683,0.533423125743866,0.92,0.76,0.0006299605249474364
415,0.4090130925178528,0.5319879651069641,0.92,0.77,0.0006299605249474364
416,0.40859436988830566,0.5313334465026855,0.92,0.77,0.0006299605249474364
417,0.4085651636123657,0.5325895547866821,0.92,0.77,0.0006299605249474364
418,0.4081982672214508,0.5333831906318665,0.92,0.76,0.0006299605249474364
419,0.4081122577190399,0.5324052572250366,0.92,0.77,0.0006299605249474364
420,0.4077075123786926,0.5322884321212769,0.92,0.76,0.0006299605249474364
421,0.40755516290664673,0.5336546897888184,0.92,0.76,0.0006299605249474364
422,0.4072365462779999,0.5344173312187195,0.92,0.76,0.0006299605249474364
423,0.40717726945877075,0.5338826179504395,0.92,0.76,0.0006299605249474364
424,0.4068892300128937,0.5330514907836914,0.92,0.76,0.0006299605249474364
425,0.4067811965942383,0.53324294090271,0.92,0.76,0.0006299605249474364
426,0.40654560923576355,0.5341090559959412,0.92,0.76,0.0006299605249474364
427,0.4063178300857544,0.5343685150146484,0.92,0.76,0.0006299605249474364
428,0.4061288833618164,0.5335908532142639,0.92,0.76,0.0006299605249474364
429,0.4058615565299988,0.5329275131225586,0.92,0.77,0.0006299605249474364
430,0.4056922197341919,0.5332140326499939,0.92,0.77,0.0006299605249474364
431,0.40546715259552,0.5335343480110168,0.92,0.77,0.0006299605249474364
432,0.4053547978401184,0.5326813459396362,0.92,0.77,0.0006299605249474364
433,0.4051192104816437,0.5323977470397949,0.92,0.77,0.0006299605249474364
434,0.40496236085891724,0.5329353213310242,0.92,0.77,0.0006299605249474364
435,0.40475475788116455,0.5329412221908569,0.92,0.77,0.0006299605249474364
436,0.4045746624469757,0.532414436340332,0.92,0.77,0.0006299605249474364
437,0.40440478920936584,0.5323469042778015,0.92,0.77,0.0006299605249474364
438,0.4042361378669739,0.532747745513916,0.92,0.77,0.0006299605249474364
439,0.404064416885376,0.53287672996521,0.92,0.77,0.0006299605249474364
440,0.4038965702056885,0.5325376987457275,0.92,0.77,0.0006299605249474364
441,0.40371230244636536,0.5323914885520935,0.92,0.77,0.0006299605249474364
442,0.40353915095329285,0.5327222347259521,0.92,0.77,0.0006299605249474364
443,0.4033544659614563,0.5330159664154053,0.92,0.77,0.0006299605249474364
444,0.4031854271888733,0.5329311490058899,0.92,0.78,0.0006299605249474364
445,0.4030083417892456,0.5330589413642883,0.92,0.78,0.0006299605249474364
446,0.4028300940990448,0.5336938500404358,0.92,0.78,0.0006299605249474364
447,0.40265053510665894,0.5343726873397827,0.92,0.78,0.0006299605249474364
448,0.4024701416492462,0.5348694324493408,0.92,0.78,0.0006299605249474364
449,0.4022957980632782,0.5352237224578857,0.92,0.78,0.0006299605249474364
450,0.40211981534957886,0.5352521538734436,0.92,0.78,0.0006299605249474364
451,0.4019153118133545,0.5348984599113464,0.92,0.78,0.0006299605249474364
452,0.4017118215560913,0.5344629883766174,0.92,0.78,0.0006299605249474364
453,0.4015076160430908,0.5342015624046326,0.92,0.78,0.0006299605249474364
454,0.4013184607028961,0.5343754291534424,0.92,0.77,0.0006299605249474364
455,0.40110769867897034,0.5349785089492798,0.92,0.77,0.0006299605249474364
456,0.40089088678359985,0.5359059572219849,0.92,0.77,0.0006299605249474364
457,0.4006749093532562,0.5363882780075073,0.92,0.77,0.0006299605249474364
458,0.4004731774330139,0.5357992649078369,0.92,0.77,0.0006299605249474364
459,0.4002404510974884,0.535149097442627,0.92,0.77,0.0006299605249474364
460,0.4000181555747986,0.5350149273872375,0.92,0.77,0.0006299605249474364
461,0.3998035490512848,0.5353397130966187,0.92,0.77,0.0006299605249474364
462,0.3995632827281952,0.535976231098175,0.92,0.77,0.0006299605249474364
463,0.39934322237968445,0.5358235239982605,0.92,0.77,0.0006299605249474364
464,0.39910438656806946,0.5349630117416382,0.92,0.77,0.0006299605249474364
465,0.39887043833732605,0.5347498059272766,0.92,0.77,0.0006299605249474364
466,0.39863643050193787,0.5353635549545288,0.92,0.77,0.0006299605249474364
467,0.3983917236328125,0.5350987911224365,0.92,0.77,0.0006299605249474364
468,0.39815494418144226,0.5342188477516174,0.92,0.77,0.0006299605249474364
469,0.39790454506874084,0.5343725681304932,0.92,0.77,0.0006299605249474364
470,0.39766356348991394,0.5340737104415894,0.92,0.77,0.0006299605249474364
471,0.3974032998085022,0.5340021848678589,0.92,0.77,0.0006299605249474364
472,0.39715340733528137,0.5339056253433228,0.92,0.77,0.0006299605249474364
473,0.3968876898288727,0.533237636089325,0.92,0.77,0.0006299605249474364
474,0.3966286778450012,0.5342398881912231,0.92,0.77,0.0006299605249474364
475,0.39636191725730896,0.5326632261276245,0.92,0.77,0.0006299605249474364
476,0.39612847566604614,0.5369085073471069,0.92,0.76,0.0006299605249474364
477,0.39616334438323975,0.5314245820045471,0.92,0.77,0.0006299605249474364
478,0.39668795466423035,0.5372514128684998,0.92,0.77,0.0006299605249474364
479,0.4067484140396118,0.5325247645378113,0.91,0.75,0.0006299605249474364
480,0.4220578670501709,0.5308578014373779,0.91,0.76,0.0006299605249474364
481,0.4039652943611145,0.5367856621742249,0.92,0.76,0.0006299605249474364
482,0.4106132984161377,0.5414586067199707,0.91,0.76,0.0006299605249474364
483,0.4050300121307373,0.5333961248397827,0.92,0.78,0.0006299605249474364
484,0.40663158893585205,0.5342150330543518,0.91,0.77,0.0004999999999999997
485,0.4085748791694641,0.5383418798446655,0.92,0.76,0.0004999999999999997
486,0.4027981460094452,0.5360211133956909,0.92,0.77,0.0004999999999999997
487,0.40610790252685547,0.5328140258789062,0.91,0.77,0.0004999999999999997
488,0.4064582586288452,0.5311321020126343,0.91,0.77,0.0004999999999999997
489,0.4043419659137726,0.5359888672828674,0.91,0.77,0.0004999999999999997
490,0.4003125727176666,0.5336515307426453,0.92,0.76,0.0004999999999999997
491,0.40636467933654785,0.5314356684684753,0.93,0.76,0.0004999999999999997
492,0.4001878499984741,0.5288512706756592,0.92,0.77,0.0004999999999999997
493,0.4030471444129944,0.533130407333374,0.92,0.77,0.0004999999999999997
494,0.40079018473625183,0.533994734287262,0.92,0.77,0.0004999999999999997
495,0.40022212266921997,0.5337606072425842,0.92,0.77,0.0004999999999999997
496,0.4003975987434387,0.5213742256164551,0.92,0.78,0.0004999999999999997
497,0.39979058504104614,0.5219671130180359,0.92,0.78,0.0004999999999999997
498,0.3998045325279236,0.5312954187393188,0.92,0.77,0.0004999999999999997
499,0.3980417549610138,0.5331704616546631,0.92,0.77,0.0004999999999999997
500,0.39964306354522705,0.5340225696563721,0.92,0.77,0.0004999999999999997
501,0.3971901834011078,0.5283284187316895,0.92,0.77,0.0004999999999999997
502,0.3980981409549713,0.5311784148216248,0.92,0.77,0.0004999999999999997
503,0.39761337637901306,0.5366331934928894,0.92,0.77,0.0004999999999999997
504,0.39660704135894775,0.5370407104492188,0.92,0.77,0.0004999999999999997
505,0.3978155255317688,0.5371717810630798,0.92,0.77,0.0004999999999999997
506,0.3962768316268921,0.5344935059547424,0.92,0.77,0.0004999999999999997
507,0.39699509739875793,0.5350754857063293,0.92,0.77,0.0004999999999999997
508,0.396260529756546,0.537674069404602,0.92,0.77,0.0004999999999999997
509,0.39602506160736084,0.5375662446022034,0.92,0.77,0.0004999999999999997
510,0.39604607224464417,0.5359313488006592,0.92,0.77,0.0004999999999999997
511,0.3956035375595093,0.5342457294464111,0.92,0.77,0.0004999999999999997
512,0.39555826783180237,0.5346052646636963,0.92,0.77,0.0004999999999999997
513,0.39534348249435425,0.5370752215385437,0.92,0.77,0.0004999999999999997
514,0.3952438235282898,0.5372133255004883,0.92,0.77,0.0004999999999999997
515,0.3948531448841095,0.5371066331863403,0.92,0.77,0.0004999999999999997
516,0.39491936564445496,0.5383910536766052,0.92,0.77,0.0004999999999999997
517,0.3944164216518402,0.538781464099884,0.92,0.77,0.0004999999999999997
518,0.3946175277233124,0.5393127202987671,0.92,0.77,0.0004999999999999997
519,0.39418482780456543,0.539376974105835,0.92,0.77,0.0004999999999999997
520,0.39409491419792175,0.5393678545951843,0.92,0.77,0.0004999999999999997
521,0.39382052421569824,0.5392454266548157,0.92,0.77,0.0004999999999999997
522,0.39357224106788635,0.537242591381073,0.92,0.77,0.0004999999999999997
523,0.3932943642139435,0.5355298519134521,0.92,0.77,0.0004999999999999997
524,0.3932800590991974,0.5365515351295471,0.92,0.77,0.0004999999999999997
525,0.39295119047164917,0.5379709601402283,0.92,0.76,0.0004999999999999997
526,0.392793744802475,0.5377909541130066,0.92,0.77,0.0004999999999999997
527,0.392495721578598,0.5383063554763794,0.92,0.77,0.0004999999999999997
528,0.39229220151901245,0.5392526388168335,0.92,0.76,0.0004999999999999997
529,0.39214909076690674,0.5388680100440979,0.92,0.77,0.0004999999999999997
530,0.39190322160720825,0.5383245348930359,0.92,0.77,0.0004999999999999997
531,0.39172881841659546,0.5387147665023804,0.92,0.76,0.0004999999999999997
532,0.3914536237716675,0.5380837321281433,0.92,0.76,0.0004999999999999997
533,0.39122986793518066,0.5367254018783569,0.92,0.76,0.0004999999999999997
534,0.39107435941696167,0.5367113947868347,0.92,0.76,0.0004999999999999997
535,0.3908577859401703,0.5360047221183777,0.93,0.76,0.0004999999999999997
536,0.39063361287117004,0.5358643531799316,0.93,0.76,0.0004999999999999997
537,0.39043644070625305,0.5369124412536621,0.92,0.76,0.0004999999999999997
538,0.39023563265800476,0.5365244746208191,0.94,0.76,0.0004999999999999997
539,0.39002567529678345,0.5370891094207764,0.93,0.76,0.0004999999999999997
540,0.38979750871658325,0.5365071892738342,0.94,0.76,0.0004999999999999997
541,0.38957709074020386,0.536257803440094,0.93,0.76,0.0004999999999999997
542,0.38936886191368103,0.5358971953392029,0.94,0.76,0.0004999999999999997
543,0.3891601264476776,0.5353478193283081,0.94,0.76,0.0004999999999999997
544,0.3889540135860443,0.5353013873100281,0.93,0.76,0.0004999999999999997
545,0.388772577047348,0.5341522693634033,0.94,0.76,0.0004999999999999997
546,0.3886488080024719,0.5347036123275757,0.93,0.76,0.0004999999999999997
547,0.38870200514793396,0.5314695239067078,0.94,0.77,0.0004999999999999997
548,0.3895934820175171,0.5360185503959656,0.92,0.76,0.0004999999999999997
549,0.39377468824386597,0.5222353339195251,0.93,0.78,0.0004999999999999997
550,0.4040693938732147,0.5277294516563416,0.91,0.76,0.0004999999999999997
551,0.39702528715133667,0.5400646328926086,0.91,0.75,0.0004999999999999997
552,0.42114654183387756,0.5170923471450806,0.89,0.78,0.0004999999999999997
553,0.4066249132156372,0.516320526599884,0.91,0.79,0.0004999999999999997
554,0.41785699129104614,0.5220610499382019,0.9,0.77,0.0004999999999999997
555,0.4105876684188843,0.5366203784942627,0.9,0.76,0.0004999999999999997
556,0.3981004059314728,0.5340149998664856,0.92,0.77,0.0004999999999999997
557,0.40661880373954773,0.519361138343811,0.91,0.79,0.0004999999999999997
558,0.4019363820552826,0.5172881484031677,0.91,0.79,0.0004999999999999997
559,0.40539780259132385,0.5266878604888916,0.91,0.77,0.0004999999999999997
560,0.3984687030315399,0.5256549119949341,0.92,0.78,0.0004999999999999997
561,0.40117523074150085,0.5249585509300232,0.91,0.77,0.0004999999999999997
562,0.39940589666366577,0.5080950260162354,0.92,0.8,0.0004999999999999997
563,0.3988846242427826,0.5034234523773193,0.91,0.81,0.0004999999999999997
564,0.4021662771701813,0.5117200016975403,0.91,0.81,0.0004999999999999997
565,0.39544975757598877,0.5237676501274109,0.91,0.79,0.0004999999999999997
566,0.39258629083633423,0.5315530896186829,0.92,0.77,0.0004999999999999997
567,0.3950912058353424,0.5378170609474182,0.93,0.77,0.0004999999999999997
568,0.38938847184181213,0.5332072377204895,0.93,0.78,0.0004999999999999997
569,0.3918248414993286,0.5360493659973145,0.93,0.77,0.0004999999999999997
570,0.39182984828948975,0.5404059886932373,0.94,0.76,0.0004999999999999997
571,0.3881804347038269,0.5385669469833374,0.94,0.76,0.0004999999999999997
572,0.3913797438144684,0.5445109009742737,0.94,0.76,0.0004999999999999997
573,0.39781510829925537,0.5238139629364014,0.93,0.79,0.0004999999999999997
574,0.3970471918582916,0.521466851234436,0.91,0.78,0.0004999999999999997
575,0.39332303404808044,0.5439720153808594,0.92,0.76,0.0004999999999999997
576,0.41041165590286255,0.5248711705207825,0.91,0.76,0.0004999999999999997
577,0.3872939348220825,0.5188780426979065,0.94,0.78,0.0004999999999999997
578,0.39913201332092285,0.5267733931541443,0.91,0.77,0.0004999999999999997
579,0.3897954821586609,0.5376242995262146,0.92,0.76,0.0004999999999999997
580,0.3953983187675476,0.5322180986404419,0.93,0.76,0.0004999999999999997
581,0.38849571347236633,0.5274806618690491,0.93,0.77,0.0004999999999999997
582,0.3915019929409027,0.5264874696731567,0.92,0.76,0.0004999999999999997
583,0.3933233320713043,0.5246920585632324,0.92,0.77,0.0004999999999999997
584,0.39053040742874146,0.5290120244026184,0.92,0.76,0.0004999999999999997
585,0.38933268189430237,0.5298450589179993,0.93,0.77,0.0004999999999999997
586,0.39073288440704346,0.5223177671432495,0.93,0.78,0.0004999999999999997
587,0.3884795010089874,0.5229218006134033,0.92,0.78,0.0004999999999999997
588,0.3902709484100342,0.523789644241333,0.92,0.78,0.0004999999999999997
589,0.38785016536712646,0.5303541421890259,0.92,0.76,0.0004999999999999997
590,0.3877946436405182,0.531817615032196,0.94,0.76,0.0004999999999999997
591,0.38659149408340454,0.5303840637207031,0.94,0.78,0.0004999999999999997
592,0.3869990110397339,0.5329371094703674,0.93,0.77,0.0004999999999999997
593,0.38696661591529846,0.5394155979156494,0.93,0.76,0.0004999999999999997
594,0.3859751522541046,0.5417249202728271,0.94,0.76,0.0004999999999999997
595,0.3862247169017792,0.5386989712715149,0.94,0.77,0.0004999999999999997
596,0.386508584022522,0.5408189296722412,0.93,0.76,0.0004999999999999997
597,0.3852405548095703,0.5431089997291565,0.94,0.76,0.0004999999999999997
598,0.386457622051239,0.5401132106781006,0.94,0.76,0.0004999999999999997
599,0.38485538959503174,0.5379299521446228,0.94,0.76,0.0004999999999999997
600,0.3855437934398651,0.5417425036430359,0.93,0.76,0.0004999999999999997
601,0.38501492142677307,0.5413874983787537,0.94,0.76,0.0004999999999999997
602,0.3844488561153412,0.5384790301322937,0.94,0.76,0.0004999999999999997
603,0.3849620819091797,0.5407335758209229,0.93,0.76,0.0004999999999999997
604,0.38395747542381287,0.5410966873168945,0.94,0.76,0.0004999999999999997
605,0.38449257612228394,0.5395525693893433,0.94,0.76,0.0004999999999999997
606,0.3839917480945587,0.5395501852035522,0.94,0.76,0.0004999999999999997
607,0.383899450302124,0.5406113862991333,0.94,0.76,0.0004999999999999997
608,0.3839223086833954,0.5404525995254517,0.94,0.76,0.0004999999999999997
609,0.3834158778190613,0.5396040081977844,0.94,0.76,0.0004999999999999997
610,0.3836763799190521,0.5402575731277466,0.94,0.76,0.0004999999999999997
611,0.383190393447876,0.5401856899261475,0.94,0.76,0.0004999999999999997
612,0.3834003806114197,0.5392136573791504,0.94,0.76,0.0004999999999999997
613,0.3830874264240265,0.538751482963562,0.94,0.76,0.0004999999999999997
614,0.38297465443611145,0.5389328598976135,0.94,0.76,0.0004999999999999997
615,0.3829430341720581,0.5384418368339539,0.94,0.76,0.0004999999999999997
616,0.3826061189174652,0.5375292897224426,0.94,0.76,0.0004999999999999997
617,0.38268357515335083,0.5381643772125244,0.94,0.76,0.0004999999999999997
618,0.3823903203010559,0.538339376449585,0.94,0.76,0.0004999999999999997
619,0.38238468766212463,0.5376669764518738,0.94,0.76,0.0004999999999999997
620,0.38226211071014404,0.5380946397781372,0.94,0.76,0.0004999999999999997
621,0.3820672929286957,0.5387012958526611,0.94,0.76,0.0004999999999999997
622,0.38209855556488037,0.5382463335990906,0.94,0.76,0.0004999999999999997
623,0.38186877965927124,0.5380852222442627,0.94,0.76,0.0004999999999999997
624,0.3818078637123108,0.5387283563613892,0.94,0.76,0.0004999999999999997
625,0.3817405700683594,0.5383888483047485,0.94,0.76,0.0004999999999999997
626,0.3815491497516632,0.5378846526145935,0.94,0.76,0.0004999999999999997
627,0.3815252184867859,0.5385149717330933,0.94,0.76,0.0004999999999999997
628,0.3813961446285248,0.538393497467041,0.94,0.76,0.0004999999999999997
629,0.3812748193740845,0.5378564596176147,0.94,0.76,0.0004999999999999997
630,0.3812452554702759,0.5384013652801514,0.94,0.76,0.0004999999999999997
631,0.38111960887908936,0.5383888483047485,0.94,0.76,0.0004999999999999997
632,0.3810470700263977,0.5378772616386414,0.94,0.76,0.0004999999999999997
633,0.38100945949554443,0.5382692813873291,0.94,0.76,0.0004999999999999997
634,0.3808972239494324,0.5382398366928101,0.94,0.76,0.0004999999999999997
635,0.3808363974094391,0.5376830101013184,0.94,0.76,0.0004999999999999997
636,0.3807786703109741,0.5377941131591797,0.94,0.76,0.0004999999999999997
637,0.3806706368923187,0.5376043915748596,0.94,0.76,0.0004999999999999997
638,0.3806115686893463,0.5368419289588928,0.94,0.76,0.0004999999999999997
639,0.38054031133651733,0.5365526676177979,0.94,0.76,0.0004999999999999997
640,0.38044387102127075,0.5360721945762634,0.94,0.76,0.0004999999999999997
641,0.3803892433643341,0.5348914265632629,0.94,0.76,0.0004999999999999997
642,0.38031306862831116,0.5341432094573975,0.94,0.76,0.0004999999999999997
643,0.3802303671836853,0.5334522724151611,0.94,0.76,0.0004999999999999997
644,0.38017773628234863,0.5321567058563232,0.94,0.76,0.0004999999999999997
645,0.38010260462760925,0.5315085053443909,0.94,0.76,0.0004999999999999997
646,0.3800312280654907,0.5312650799751282,0.94,0.76,0.0004999999999999997
647,0.3799774646759033,0.5306142568588257,0.94,0.76,0.0004999999999999997
648,0.3799036145210266,0.5305242538452148,0.94,0.76,0.0004999999999999997
649,0.37983742356300354,0.5308395624160767,0.94,0.76,0.0004999999999999997
650,0.3797800540924072,0.5307157635688782,0.94,0.76,0.0004999999999999997
651,0.37970811128616333,0.5308566093444824,0.94,0.76,0.0004999999999999997
652,0.3796461224555969,0.5312442183494568,0.94,0.76,0.0004999999999999997
653,0.37958747148513794,0.5311163663864136,0.94,0.76,0.0004999999999999997
654,0.37951990962028503,0.5309879183769226,0.94,0.76,0.0004999999999999997
655,0.3794616758823395,0.5310137867927551,0.94,0.76,0.0004999999999999997
656,0.3794020116329193,0.530561089515686,0.94,0.76,0.0004999999999999997
657,0.3793374001979828,0.5299977660179138,0.94,0.76,0.0004999999999999997
658,0.37928009033203125,0.5296228528022766,0.94,0.76,0.0004999999999999997
659,0.37921959161758423,0.5289369821548462,0.94,0.77,0.0004999999999999997
660,0.37915828824043274,0.5282034873962402,0.94,0.77,0.0004999999999999997
661,0.37910252809524536,0.52774977684021,0.94,0.77,0.0004999999999999997
662,0.37904345989227295,0.5271901488304138,0.94,0.77,0.0004999999999999997
663,0.37898576259613037,0.5266398191452026,0.94,0.77,0.0004999999999999997
664,0.37893107533454895,0.5263524651527405,0.94,0.77,0.0004999999999999997
665,0.37887343764305115,0.5260365009307861,0.94,0.77,0.0004999999999999997
666,0.37881746888160706,0.52569979429245,0.94,0.77,0.0004999999999999997
667,0.3787626326084137,0.525543749332428,0.94,0.77,0.0004999999999999997
668,0.37870562076568604,0.5253605842590332,0.94,0.77,0.0004999999999999997
669,0.378650426864624,0.5251043438911438,0.94,0.77,0.0004999999999999997
670,0.3785952031612396,0.5249422788619995,0.94,0.77,0.0004999999999999997
671,0.3785387873649597,0.5247460007667542,0.94,0.77,0.0004999999999999997
672,0.3784838020801544,0.524451732635498,0.94,0.77,0.0004999999999999997
673,0.3784278631210327,0.5241989493370056,0.94,0.77,0.0004999999999999997
674,0.37837108969688416,0.5239324569702148,0.94,0.77,0.0004999999999999997
675,0.37831470370292664,0.5235894918441772,0.94,0.77,0.0004999999999999997
676,0.37825649976730347,0.5232753157615662,0.94,0.77,0.0004999999999999997
677,0.37819766998291016,0.522994875907898,0.94,0.77,0.0004999999999999997
678,0.3781380355358124,0.5227041244506836,0.94,0.77,0.0004999999999999997
679,0.37807682156562805,0.5225055813789368,0.94,0.77,0.0004999999999999997
680,0.37801608443260193,0.5225333571434021,0.94,0.77,0.0004999999999999997
681,0.3779557943344116,0.5229055285453796,0.94,0.77,0.0004999999999999997
682,0.3778976500034332,0.5236718654632568,0.94,0.77,0.0004999999999999997
683,0.37784263491630554,0.524433434009552,0.94,0.77,0.0004999999999999997
684,0.3777889609336853,0.5244277715682983,0.94,0.76,0.0004999999999999997
685,0.3777363896369934,0.5233703851699829,0.94,0.77,0.0004999999999999997
686,0.37768298387527466,0.5217595100402832,0.94,0.77,0.0004999999999999997
687,0.37762945890426636,0.5203309059143066,0.94,0.77,0.0004999999999999997
688,0.3775774836540222,0.5193524360656738,0.94,0.77,0.0004999999999999997
689,0.37752774357795715,0.5187025666236877,0.94,0.77,0.0004999999999999997
690,0.3774794340133667,0.5182454586029053,0.94,0.77,0.0004999999999999997
691,0.3774299919605255,0.5179053544998169,0.94,0.77,0.0004999999999999997
692,0.37737926840782166,0.5176907181739807,0.94,0.77,0.0004999999999999997
693,0.37732887268066406,0.517620325088501,0.94,0.77,0.0004999999999999997
694,0.37727904319763184,0.5175475478172302,0.94,0.77,0.0004999999999999997
695,0.3772291839122772,0.5172944664955139,0.94,0.77,0.0004999999999999997
696,0.3771779239177704,0.5169262886047363,0.94,0.77,0.0004999999999999997
697,0.3771257698535919,0.5165664553642273,0.94,0.77,0.0004999999999999997
698,0.3770736753940582,0.5162408947944641,0.94,0.77,0.0004999999999999997
699,0.3770219683647156,0.5159724950790405,0.94,0.77,0.0004999999999999997
700,0.3769703209400177,0.5157769918441772,0.94,0.77,0.0004999999999999997
701,0.37691807746887207,0.5156242251396179,0.94,0.77,0.0004999999999999997
702,0.3768655061721802,0.5154929161071777,0.94,0.77,0.0004999999999999997
703,0.3768129348754883,0.5153626799583435,0.94,0.77,0.0004999999999999997
704,0.3767601251602173,0.5151398181915283,0.94,0.77,0.0004999999999999997
705,0.3767065405845642,0.5147912502288818,0.94,0.77,0.0004999999999999997
706,0.3766516149044037,0.5144272446632385,0.94,0.79,0.0004999999999999997
707,0.37659478187561035,0.514110267162323,0.94,0.79,0.0004999999999999997
708,0.376536101102829,0.5138263702392578,0.94,0.79,0.0004999999999999997
709,0.37647509574890137,0.5135836601257324,0.94,0.79,0.0004999999999999997
710,0.37641116976737976,0.5133741497993469,0.94,0.79,0.0004999999999999997
711,0.3763439655303955,0.513137698173523,0.94,0.8,0.0004999999999999997
712,0.37627288699150085,0.5128365159034729,0.94,0.8,0.0004999999999999997
713,0.3761972486972809,0.5124812722206116,0.94,0.8,0.0004999999999999997
714,0.37611618638038635,0.512087345123291,0.94,0.8,0.0004999999999999997
715,0.3760286271572113,0.5117045640945435,0.94,0.8,0.0004999999999999997
716,0.37593337893486023,0.5113820433616638,0.94,0.8,0.0004999999999999997
717,0.37582865357398987,0.5111024379730225,0.94,0.8,0.0004999999999999997
718,0.3757128119468689,0.5108378529548645,0.94,0.8,0.0004999999999999997
719,0.37558403611183167,0.5105908513069153,0.94,0.8,0.0004999999999999997
720,0.37543991208076477,0.510339081287384,0.94,0.8,0.0004999999999999997
721,0.3752780258655548,0.5100756287574768,0.94,0.79,0.0004999999999999997
722,0.37509629130363464,0.509835422039032,0.94,0.79,0.0004999999999999997
723,0.37489211559295654,0.5095993280410767,0.94,0.79,0.0004999999999999997
724,0.3746635913848877,0.5093381404876709,0.94,0.79,0.0004999999999999997
725,0.374409019947052,0.5090450048446655,0.94,0.79,0.0004999999999999997
726,0.3741288483142853,0.5086880326271057,0.94,0.79,0.0004999999999999997
727,0.37382495403289795,0.5083523392677307,0.94,0.79,0.0004999999999999997
728,0.37350186705589294,0.5081140398979187,0.94,0.8,0.0004999999999999997
729,0.37316516041755676,0.5081092119216919,0.94,0.8,0.0004999999999999997
730,0.3728206753730774,0.5084674954414368,0.94,0.8,0.0004999999999999997
731,0.37247246503829956,0.5091279745101929,0.94,0.79,0.0004999999999999997
732,0.3721226155757904,0.5033780932426453,0.95,0.8,0.0004999999999999997
733,0.3717736303806305,0.5027293562889099,0.95,0.8,0.0004999999999999997
734,0.371429443359375,0.5032466053962708,0.95,0.8,0.0004999999999999997
735,0.3710978329181671,0.503237247467041,0.95,0.8,0.0004999999999999997
736,0.3707877993583679,0.5031481385231018,0.95,0.8,0.0004999999999999997
737,0.3705042004585266,0.5030865669250488,0.95,0.8,0.0004999999999999997
738,0.37024742364883423,0.503013014793396,0.95,0.8,0.0004999999999999997
739,0.3700137436389923,0.5028613805770874,0.95,0.8,0.0004999999999999997
740,0.36979618668556213,0.5025926828384399,0.95,0.79,0.0004999999999999997
741,0.36958760023117065,0.5022132992744446,0.95,0.79,0.0004999999999999997
742,0.3693816065788269,0.5018112063407898,0.95,0.79,0.0004999999999999997
743,0.3691682815551758,0.5015894174575806,0.95,0.8,0.0004999999999999997
744,0.3689367175102234,0.5017485022544861,0.95,0.8,0.0004999999999999997
745,0.36871078610420227,0.501896321773529,0.95,0.8,0.0004999999999999997
746,0.3685425817966461,0.5018579959869385,0.95,0.81,0.0004999999999999997
747,0.36842238903045654,0.5018618106842041,0.95,0.81,0.0004999999999999997
748,0.3682774603366852,0.5019068121910095,0.95,0.8,0.0004999999999999997
749,0.36812320351600647,0.502041220664978,0.95,0.8,0.0004999999999999997
750,0.36798518896102905,0.5021662712097168,0.95,0.8,0.0004999999999999997
751,0.36786049604415894,0.5020352005958557,0.95,0.81,0.0004999999999999997
752,0.3677532970905304,0.5015087723731995,0.95,0.81,0.0004999999999999997
753,0.36761459708213806,0.5004308819770813,0.95,0.81,0.0004999999999999997
754,0.3675026595592499,0.4980854392051697,0.95,0.81,0.0004999999999999997
755,0.36740559339523315,0.4947671592235565,0.95,0.82,0.0004999999999999997
756,0.3673228323459625,0.49205341935157776,0.95,0.83,0.0004999999999999997
757,0.36724457144737244,0.49079352617263794,0.95,0.83,0.0004999999999999997
758,0.36715757846832275,0.4911500811576843,0.95,0.83,0.0004999999999999997
759,0.36706554889678955,0.4920452833175659,0.95,0.83,0.0004999999999999997
760,0.3669816255569458,0.49305441975593567,0.95,0.82,0.0004999999999999997
761,0.36690983176231384,0.49403107166290283,0.95,0.82,0.0004999999999999997
762,0.3668433427810669,0.49362266063690186,0.95,0.81,0.0004999999999999997
763,0.366777241230011,0.4928946793079376,0.95,0.81,0.0004999999999999997
764,0.36671391129493713,0.4923951327800751,0.95,0.81,0.0004999999999999997
765,0.3666548430919647,0.49194300174713135,0.95,0.82,0.0004999999999999997
766,0.36659884452819824,0.49232742190361023,0.95,0.81,0.0004999999999999997
767,0.3665451407432556,0.4928959608078003,0.95,0.81,0.0004999999999999997
768,0.366493821144104,0.4934704303741455,0.95,0.81,0.0004999999999999997
769,0.3664444386959076,0.49426499009132385,0.95,0.81,0.0004999999999999997
770,0.36639639735221863,0.49444761872291565,0.95,0.81,0.0004999999999999997
771,0.36635005474090576,0.49417465925216675,0.95,0.81,0.0004999999999999997
772,0.3663059175014496,0.49364200234413147,0.95,0.81,0.0004999999999999997
773,0.36626341938972473,0.4924463629722595,0.95,0.82,0.0004999999999999997
774,0.3662223517894745,0.4912585914134979,0.95,0.82,0.0004999999999999997
775,0.36618298292160034,0.4903014004230499,0.95,0.83,0.0004999999999999997
776,0.3661448359489441,0.48936232924461365,0.95,0.83,0.0004999999999999997
777,0.3661075532436371,0.4888160824775696,0.95,0.83,0.0004999999999999997
778,0.36607131361961365,0.48850399255752563,0.95,0.83,0.0004999999999999997
779,0.36603644490242004,0.48822420835494995,0.95,0.83,0.0004999999999999997
780,0.36600273847579956,0.4881488084793091,0.95,0.83,0.0004999999999999997
781,0.36597007513046265,0.4880591630935669,0.95,0.83,0.0004999999999999997
782,0.36593836545944214,0.4878421425819397,0.95,0.83,0.0004999999999999997
783,0.3659074306488037,0.4876684844493866,0.95,0.83,0.0004999999999999997
784,0.36587706208229065,0.48740315437316895,0.95,0.83,0.0004999999999999997
785,0.3658474385738373,0.48708266019821167,0.95,0.83,0.0004999999999999997
786,0.3658185601234436,0.48685890436172485,0.95,0.83,0.0004999999999999997
787,0.36579036712646484,0.486640065908432,0.95,0.83,0.0004999999999999997
788,0.3657631278038025,0.48646223545074463,0.95,0.83,0.0004999999999999997
789,0.36573660373687744,0.48641079664230347,0.95,0.83,0.0004999999999999997
790,0.36571067571640015,0.48638638854026794,0.95,0.83,0.0004999999999999997
791,0.365685373544693,0.4864063262939453,0.95,0.83,0.0004999999999999997
792,0.36566075682640076,0.4865286350250244,0.95,0.83,0.0004999999999999997
793,0.3656366765499115,0.48661109805107117,0.95,0.83,0.0004999999999999997
794,0.36561328172683716,0.48667702078819275,0.95,0.83,0.0004999999999999997
795,0.3655904531478882,0.4867747128009796,0.95,0.83,0.0004999999999999997
796,0.3655681610107422,0.4867621958255768,0.95,0.83,0.0004999999999999997
797,0.36554646492004395,0.48671773076057434,0.95,0.83,0.0004999999999999997
798,0.36552509665489197,0.48670563101768494,0.95,0.83,0.0004999999999999997
799,0.36550426483154297,0.4866268038749695,0.95,0.83,0.0004999999999999997
800,0.36548370122909546,0.4865855276584625,0.95,0.82,0.0004999999999999997
801,0.36546361446380615,0.48663491010665894,0.95,0.82,0.0004999999999999997
802,0.3654438853263855,0.48668429255485535,0.95,0.82,0.0004999999999999997
803,0.3654245138168335,0.486820787191391,0.95,0.82,0.0004999999999999997
804,0.3654056191444397,0.4870632290840149,0.95,0.82,0.0004999999999999997
805,0.365386962890625,0.48730847239494324,0.95,0.82,0.0004999999999999997
806,0.3653685748577118,0.48761922121047974,0.95,0.82,0.0004999999999999997
807,0.365350604057312,0.4879836142063141,0.95,0.82,0.0004999999999999997
808,0.3653329610824585,0.48829787969589233,0.95,0.82,0.0004999999999999997
809,0.3653155267238617,0.48861613869667053,0.95,0.82,0.0004999999999999997
810,0.36529844999313354,0.48892703652381897,0.95,0.82,0.0004999999999999997
811,0.3652816414833069,0.4891568422317505,0.95,0.82,0.0004999999999999997
812,0.3652651309967041,0.4893655478954315,0.95,0.82,0.0004999999999999997
813,0.36524876952171326,0.48955830931663513,0.95,0.82,0.0004999999999999997
814,0.36523282527923584,0.4896904230117798,0.95,0.82,0.0004999999999999997
815,0.3652169704437256,0.4898177981376648,0.95,0.82,0.0004999999999999997
816,0.36520150303840637,0.48994961380958557,0.95,0.82,0.0004999999999999997
817,0.3651861846446991,0.49005118012428284,0.95,0.82,0.0004999999999999997
818,0.3651711344718933,0.4901624321937561,0.95,0.82,0.0004999999999999997
819,0.3651562035083771,0.490285724401474,0.95,0.82,0.0004999999999999997
820,0.3651416301727295,0.4903881549835205,0.95,0.82,0.0004999999999999997
821,0.36512720584869385,0.4904909133911133,0.95,0.82,0.0004999999999999997
822,0.3651129901409149,0.4905923008918762,0.95,0.82,0.0004999999999999997
823,0.3650990426540375,0.4906635582447052,0.95,0.82,0.0004999999999999997
824,0.3650851845741272,0.49071818590164185,0.95,0.82,0.0004999999999999997
825,0.365071564912796,0.4907560646533966,0.95,0.82,0.0004999999999999997
826,0.36505818367004395,0.4907592535018921,0.95,0.82,0.0004999999999999997
827,0.3650449812412262,0.4907400906085968,0.95,0.82,0.0004999999999999997
828,0.3650319278240204,0.4907039999961853,0.95,0.82,0.0004999999999999997
829,0.3650189936161041,0.4906415641307831,0.95,0.82,0.0004999999999999997
830,0.36500629782676697,0.49056485295295715,0.95,0.82,0.0004999999999999997
831,0.36499378085136414,0.49048182368278503,0.95,0.82,0.0004999999999999997
832,0.36498141288757324,0.49038752913475037,0.95,0.82,0.0004999999999999997
833,0.3649691343307495,0.4902912974357605,0.95,0.82,0.0004999999999999997
834,0.3649572432041168,0.49019962549209595,0.95,0.82,0.0004999999999999997
835,0.36494529247283936,0.4901069700717926,0.95,0.82,0.0004999999999999997
836,0.364933580160141,0.4900173246860504,0.95,0.82,0.0004999999999999997
837,0.36492201685905457,0.4899342656135559,0.95,0.82,0.0004999999999999997
838,0.3649105727672577,0.48985031247138977,0.95,0.82,0.0004999999999999997
839,0.3648993670940399,0.4897652864456177,0.95,0.82,0.0004999999999999997
840,0.3648882210254669,0.48968014121055603,0.95,0.82,0.0004999999999999997
841,0.3648774027824402,0.4895890951156616,0.95,0.82,0.0004999999999999997
842,0.3648664355278015,0.48949065804481506,0.95,0.82,0.0004999999999999997
843,0.3648558557033539,0.48938632011413574,0.95,0.82,0.0004999999999999997
844,0.3648453652858734,0.48927268385887146,0.95,0.82,0.0004999999999999997
845,0.3648349642753601,0.48914986848831177,0.95,0.82,0.0004999999999999997
846,0.36482474207878113,0.4890202283859253,0.95,0.82,0.0004999999999999997
847,0.3648146390914917,0.4888829290866852,0.95,0.82,0.0004999999999999997
848,0.36480462551116943,0.48873865604400635,0.95,0.82,0.0004999999999999997
849,0.36479485034942627,0.4885903596878052,0.95,0.82,0.0004999999999999997
850,0.3647850751876831,0.48843806982040405,0.95,0.82,0.0004999999999999997
851,0.36477550864219666,0.48828208446502686,0.95,0.82,0.0004999999999999997
852,0.36476609110832214,0.4881252944469452,0.95,0.82,0.0004999999999999997
853,0.36475670337677,0.4879675805568695,0.95,0.82,0.0004999999999999997
854,0.364747554063797,0.4878089427947998,0.95,0.82,0.0004999999999999997
855,0.3647383749485016,0.4876507520675659,0.95,0.82,0.0004999999999999997
856,0.3647293746471405,0.4874933362007141,0.95,0.82,0.0004999999999999997
857,0.36472058296203613,0.4873356223106384,0.95,0.82,0.0004999999999999997
858,0.36471179127693176,0.48717883229255676,0.95,0.82,0.0004999999999999997
859,0.36470305919647217,0.48702290654182434,0.95,0.82,0.0004999999999999997
860,0.3646944761276245,0.48686683177948,0.95,0.82,0.0004999999999999997
861,0.3646860122680664,0.48671141266822815,0.95,0.82,0.0004999999999999997
862,0.3646776080131531,0.48655635118484497,0.95,0.82,0.0004999999999999997
863,0.3646693527698517,0.4864015579223633,0.95,0.82,0.0004999999999999997
864,0.3646610975265503,0.48624759912490845,0.95,0.82,0.0004999999999999997
865,0.3646530210971832,0.4860953092575073,0.95,0.82,0.0004999999999999997
866,0.3646450340747833,0.48594462871551514,0.95,0.82,0.0004999999999999997
867,0.3646371364593506,0.48579633235931396,0.95,0.82,0.0004999999999999997
868,0.36462923884391785,0.4856509864330292,0.95,0.82,0.0004999999999999997
869,0.3646215498447418,0.48550906777381897,0.95,0.82,0.0004999999999999997
870,0.36461377143859863,0.4853706657886505,0.95,0.82,0.0004999999999999997
871,0.36460620164871216,0.4852365553379059,0.95,0.82,0.0004999999999999997
872,0.36459869146347046,0.48510587215423584,0.95,0.82,0.0004999999999999997
873,0.36459124088287354,0.48497870564460754,0.95,0.82,0.0004999999999999997
874,0.3645838499069214,0.48485562205314636,0.95,0.82,0.0004999999999999997
875,0.3645766079425812,0.48473525047302246,0.95,0.82,0.0004999999999999997
876,0.3645693063735962,0.4846175014972687,0.95,0.82,0.0004999999999999997
877,0.36456218361854553,0.48450222611427307,0.95,0.82,0.0004999999999999997
878,0.36455512046813965,0.48438894748687744,0.95,0.82,0.0004999999999999997
879,0.3645481467247009,0.48427727818489075,0.95,0.82,0.0004999999999999997
880,0.3645411729812622,0.48416727781295776,0.95,0.82,0.0004999999999999997
881,0.36453428864479065,0.4840591847896576,0.95,0.82,0.0004999999999999997
882,0.3645274341106415,0.48395270109176636,0.95,0.82,0.0004999999999999997
883,0.36452075839042664,0.4838480055332184,0.95,0.82,0.0004999999999999997
884,0.3645140826702118,0.48374542593955994,0.95,0.82,0.0004999999999999997
885,0.3645074963569641,0.4836447238922119,0.95,0.82,0.0004999999999999997
886,0.3645009696483612,0.4835463762283325,0.95,0.82,0.0004999999999999997
887,0.3644944131374359,0.4834500849246979,0.95,0.82,0.0004999999999999997
888,0.36448806524276733,0.48335596919059753,0.95,0.82,0.0004999999999999997
889,0.364481657743454,0.4832637906074524,0.95,0.82,0.0004999999999999997
890,0.3644753396511078,0.4831734001636505,0.95,0.82,0.0004999999999999997
891,0.3644690215587616,0.4830847978591919,0.95,0.82,0.0004999999999999997
892,0.36446285247802734,0.48299771547317505,0.95,0.82,0.0004999999999999997
893,0.3644567131996155,0.4829116463661194,0.95,0.82,0.0004999999999999997
894,0.3644505739212036,0.48282673954963684,0.95,0.82,0.0004999999999999997
895,0.3644445836544037,0.4827427566051483,0.95,0.83,0.0004999999999999997
896,0.36443859338760376,0.48265963792800903,0.95,0.83,0.0004999999999999997
897,0.364432692527771,0.48257744312286377,0.95,0.83,0.0004999999999999997
898,0.364426851272583,0.48249614238739014,0.95,0.83,0.0004999999999999997
899,0.36442089080810547,0.4824158549308777,0.95,0.83,0.0004999999999999997
900,0.3644151985645294,0.4823365807533264,0.95,0.83,0.0004999999999999997
901,0.3644094169139862,0.4822582006454468,0.95,0.83,0.0004999999999999997
902,0.36440372467041016,0.4821808934211731,0.95,0.83,0.0004999999999999997
903,0.36439812183380127,0.4821045696735382,0.95,0.83,0.0004999999999999997
904,0.36439254879951477,0.48202934861183167,0.95,0.83,0.0004999999999999997
905,0.3643869459629059,0.48195508122444153,0.95,0.83,0.0004999999999999997
906,0.3643815219402313,0.48188185691833496,0.95,0.83,0.0004999999999999997
907,0.3643759787082672,0.4818095862865448,0.95,0.83,0.0004999999999999997
908,0.3643706142902374,0.48173826932907104,0.95,0.83,0.0004999999999999997
909,0.36436522006988525,0.48166775703430176,0.95,0.83,0.0004999999999999997
910,0.36435994505882263,0.4815981984138489,0.95,0.83,0.0004999999999999997
911,0.3643546402454376,0.4815296232700348,0.95,0.83,0.0004999999999999997
912,0.3643493950366974,0.4814617931842804,0.95,0.83,0.0004999999999999997
913,0.3643440902233124,0.48139488697052,0.95,0.83,0.0004999999999999997
914,0.36433905363082886,0.48132869601249695,0.95,0.83,0.0004999999999999997
915,0.3643339276313782,0.4812634289264679,0.95,0.83,0.0004999999999999997
916,0.3643288314342499,0.4811989665031433,0.95,0.83,0.0004999999999999997
917,0.36432385444641113,0.4811352789402008,0.95,0.83,0.0004999999999999997
918,0.3643188178539276,0.48107245564460754,0.95,0.83,0.0004999999999999997
919,0.36431384086608887,0.4810106158256531,0.95,0.83,0.0004999999999999997
920,0.3643089234828949,0.48094943165779114,0.95,0.83,0.0004999999999999997
921,0.3643040359020233,0.48088932037353516,0.95,0.83,0.0004999999999999997
922,0.3642992377281189,0.48082980513572693,0.95,0.83,0.0004999999999999997
923,0.3642944097518921,0.48077109456062317,0.95,0.83,0.0004999999999999997
924,0.3642895817756653,0.4807133972644806,0.95,0.83,0.0004999999999999997
925,0.3642849326133728,0.48065653443336487,0.95,0.83,0.0004999999999999997
926,0.36428016424179077,0.4806002676486969,0.95,0.83,0.0004999999999999997
927,0.3642754852771759,0.48054495453834534,0.95,0.83,0.0004999999999999997
928,0.3642708957195282,0.4804903268814087,0.95,0.83,0.0004999999999999997
929,0.3642662763595581,0.4804365038871765,0.95,0.83,0.0004999999999999997
930,0.3642617464065552,0.4803834855556488,0.95,0.84,0.0004999999999999997
931,0.36425721645355225,0.480331152677536,0.95,0.84,0.0004999999999999997
932,0.3642526865005493,0.48027947545051575,0.95,0.84,0.0004999999999999997
933,0.3642481863498688,0.48022860288619995,0.95,0.84,0.0004999999999999997
934,0.3642438054084778,0.480178564786911,0.95,0.84,0.0004999999999999997
935,0.3642394244670868,0.480129212141037,0.95,0.84,0.0004999999999999997
936,0.36423495411872864,0.48008042573928833,0.95,0.84,0.0004999999999999997
937,0.3642306923866272,0.48003214597702026,0.95,0.84,0.0004999999999999997
938,0.3642263412475586,0.479984849691391,0.95,0.84,0.0004999999999999997
939,0.36422213912010193,0.47993797063827515,0.95,0.84,0.0004999999999999997
940,0.3642177879810333,0.47989174723625183,0.95,0.84,0.0004999999999999997
941,0.36421364545822144,0.47984635829925537,0.95,0.84,0.0004999999999999997
942,0.36420944333076477,0.47980132699012756,0.95,0.84,0.0004999999999999997
943,0.3642052114009857,0.4797569215297699,0.95,0.84,0.0004999999999999997
944,0.3642011284828186,0.4797135591506958,0.95,0.84,0.0004999999999999997
945,0.3641970753669739,0.47967082262039185,0.95,0.84,0.0004999999999999997
946,0.3641929626464844,0.479628324508667,0.95,0.84,0.0004999999999999997
947,0.3641889989376068,0.4795866906642914,0.95,0.84,0.0004999999999999997
948,0.3641849160194397,0.47954556345939636,0.95,0.84,0.0004999999999999997
949,0.3641809821128845,0.47950494289398193,0.95,0.84,0.0004999999999999997
950,0.3641769289970398,0.4794647991657257,0.95,0.84,0.0004999999999999997
951,0.3641730546951294,0.479425311088562,0.95,0.84,0.0004999999999999997
952,0.3641691505908966,0.4793860614299774,0.95,0.84,0.0004999999999999997
953,0.36416518688201904,0.4793473482131958,0.95,0.84,0.0004999999999999997
954,0.3641613721847534,0.47930920124053955,0.95,0.84,0.0004999999999999997
955,0.3641575574874878,0.47927162051200867,0.95,0.84,0.0004999999999999997
956,0.36415374279022217,0.4792345464229584,0.95,0.84,0.0004999999999999997
957,0.3641500473022461,0.47919777035713196,0.95,0.84,0.0004999999999999997
958,0.36414626240730286,0.47916179895401,0.95,0.84,0.0004999999999999997
959,0.36414244771003723,0.47912636399269104,0.95,0.84,0.0004999999999999997
960,0.36413878202438354,0.4790911376476288,0.95,0.84,0.0004999999999999997
961,0.36413508653640747,0.4790567457675934,0.95,0.84,0.0004999999999999997
962,0.36413148045539856,0.4790225923061371,0.95,0.84,0.0004999999999999997
963,0.3641278147697449,0.4789889454841614,0.95,0.84,0.0004999999999999997
964,0.36412420868873596,0.47895553708076477,0.95,0.84,0.0004999999999999997
965,0.36412063241004944,0.4789227545261383,0.95,0.84,0.0004999999999999997
966,0.3641170561313629,0.4788902699947357,0.95,0.84,0.0004999999999999997
967,0.36411353945732117,0.4788581132888794,0.95,0.84,0.0004999999999999997
968,0.3641100227832794,0.4788265526294708,0.95,0.84,0.0004999999999999997
969,0.3641064763069153,0.4787956178188324,0.95,0.84,0.0004999999999999997
970,0.3641030490398407,0.47876468300819397,0.95,0.84,0.0004999999999999997
971,0.36409953236579895,0.47873443365097046,0.95,0.84,0.0004999999999999997
972,0.36409613490104675,0.4787046015262604,0.95,0.84,0.0004999999999999997
973,0.36409270763397217,0.4786750078201294,0.95,0.84,0.0004999999999999997
974,0.3640892803668976,0.4786458909511566,0.95,0.84,0.0004999999999999997
975,0.36408600211143494,0.4786173105239868,0.95,0.84,0.0004999999999999997
976,0.3640826344490051,0.4785889685153961,0.95,0.84,0.0004999999999999997
977,0.3640793561935425,0.47856080532073975,0.95,0.84,0.0004999999999999997
978,0.36407604813575745,0.4785330891609192,0.95,0.84,0.0004999999999999997
979,0.3640727698802948,0.47850584983825684,0.95,0.84,0.0004999999999999997
980,0.3640694320201874,0.4784788489341736,0.95,0.84,0.0004999999999999997
981,0.3640662133693695,0.47845208644866943,0.95,0.84,0.0004999999999999997
982,0.36406296491622925,0.478426069021225,0.95,0.84,0.0004999999999999997
983,0.3640597462654114,0.4784000515937805,0.95,0.84,0.0004999999999999997
984,0.3640565872192383,0.47837433218955994,0.95,0.84,0.0004999999999999997
985,0.3640534281730652,0.4783490300178528,0.95,0.84,0.0004999999999999997
986,0.3640502691268921,0.4783243238925934,0.95,0.84,0.0004999999999999997
987,0.36404716968536377,0.4782995581626892,0.95,0.84,0.0004999999999999997
988,0.36404404044151306,0.4782751798629761,0.95,0.84,0.0004999999999999997
989,0.36404094099998474,0.4782513380050659,0.95,0.84,0.0004999999999999997
990,0.3640378713607788,0.47822776436805725,0.95,0.84,0.0004999999999999997
991,0.36403483152389526,0.47820430994033813,0.95,0.84,0.0004999999999999997
992,0.3640317916870117,0.47818124294281006,0.95,0.84,0.0004999999999999997
993,0.3640287518501282,0.4781586527824402,0.95,0.84,0.0004999999999999997
994,0.36402568221092224,0.47813618183135986,0.95,0.84,0.0004999999999999997
995,0.36402276158332825,0.4781140387058258,0.95,0.84,0.0004999999999999997
996,0.36401981115341187,0.478092223405838,0.95,0.84,0.0004999999999999997
997,0.3640168309211731,0.47807055711746216,0.95,0.84,0.0004999999999999997
998,0.3640139400959015,0.47804924845695496,0.95,0.84,0.0004999999999999997
999,0.3640109896659851,0.478028267621994,0.95,0.84,0.0004999999999999997
1000,0.3640080690383911,0.4780074954032898,0.95,0.84,0.0004999999999999997
1001,0.3640052378177643,0.47798678278923035,0.95,0.84,0.0004999999999999997
1002,0.36400237679481506,0.4779666066169739,0.95,0.84,0.0004999999999999997
1003,0.36399948596954346,0.4779466390609741,0.95,0.84,0.0004999999999999997
1004,0.363996684551239,0.47792690992355347,0.95,0.84,0.0004999999999999997
1005,0.36399391293525696,0.4779074490070343,0.95,0.84,0.0004999999999999997
1006,0.36399105191230774,0.47788819670677185,0.95,0.84,0.0004999999999999997
1007,0.3639882802963257,0.47786933183670044,0.95,0.84,0.0004999999999999997
1008,0.3639855682849884,0.4778505265712738,0.95,0.84,0.0004999999999999997
1009,0.3639827072620392,0.47783201932907104,0.95,0.84,0.0004999999999999997
1010,0.3639800548553467,0.4778140187263489,0.95,0.84,0.0004999999999999997
1011,0.3639772832393646,0.4777957797050476,0.95,0.84,0.0004999999999999997
1012,0.36397460103034973,0.47777804732322693,0.95,0.84,0.0004999999999999997
1013,0.3639719486236572,0.4777604341506958,0.95,0.84,0.0004999999999999997
1014,0.36396926641464233,0.477742999792099,0.95,0.84,0.0004999999999999997
1015,0.3639666438102722,0.4777257442474365,0.95,0.84,0.0004999999999999997
1016,0.36396390199661255,0.47770869731903076,0.95,0.84,0.0004999999999999997
1017,0.3639613091945648,0.4776920676231384,0.95,0.84,0.0004999999999999997
1018,0.3639586269855499,0.4776756167411804,0.95,0.84,0.0004999999999999997
1019,0.363956093788147,0.4776591360569,0.95,0.84,0.0004999999999999997
1020,0.363953560590744,0.4776432514190674,0.95,0.84,0.0004999999999999997
1021,0.3639509677886963,0.47762733697891235,0.95,0.84,0.0004999999999999997
1022,0.36394837498664856,0.4776116907596588,0.95,0.84,0.0004999999999999997
1023,0.3639458119869232,0.477596253156662,0.95,0.84,0.0004999999999999997
1024,0.3639433681964874,0.4775809943675995,0.95,0.84,0.0004999999999999997
1025,0.3639407753944397,0.4775659441947937,0.95,0.84,0.0004999999999999997
1026,0.3639383316040039,0.47755104303359985,0.95,0.84,0.0004999999999999997
1027,0.36393582820892334,0.47753632068634033,0.95,0.84,0.0004999999999999997
1028,0.36393341422080994,0.47752198576927185,0.95,0.84,0.0004999999999999997
1029,0.363930881023407,0.477507621049881,0.95,0.84,0.0004999999999999997
1030,0.3639284074306488,0.4774934649467468,0.95,0.84,0.0004999999999999997
1031,0.3639260232448578,0.4774795472621918,0.95,0.84,0.0004999999999999997
1032,0.3639236092567444,0.47746598720550537,0.95,0.84,0.0004999999999999997
1033,0.363921195268631,0.4774523675441742,0.95,0.84,0.0004999999999999997
1034,0.3639187514781952,0.47743892669677734,0.95,0.84,0.0004999999999999997
1035,0.36391639709472656,0.47742581367492676,0.95,0.84,0.0004999999999999997
1036,0.36391404271125793,0.4774128794670105,0.95,0.84,0.0004999999999999997
1037,0.3639116585254669,0.4773998260498047,0.95,0.84,0.0004999999999999997
1038,0.36390936374664307,0.47738730907440186,0.95,0.84,0.0004999999999999997
1039,0.36390700936317444,0.47737473249435425,0.95,0.84,0.0004999999999999997
1040,0.3639046847820282,0.47736239433288574,0.95,0.84,0.0004999999999999997
1041,0.36390239000320435,0.47735026478767395,0.95,0.84,0.0004999999999999997
1042,0.36390015482902527,0.4773382544517517,0.95,0.84,0.0004999999999999997
1043,0.3638978600502014,0.47732651233673096,0.95,0.84,0.0004999999999999997
1044,0.36389556527137756,0.477314829826355,0.95,0.84,0.0004999999999999997
1045,0.3638932406902313,0.47730332612991333,0.95,0.84,0.0004999999999999997
1046,0.363891065120697,0.4772920310497284,0.95,0.84,0.0004999999999999997
1047,0.36388882994651794,0.47728079557418823,0.95,0.84,0.0004999999999999997
1048,0.36388665437698364,0.4772697389125824,0.95,0.84,0.0004999999999999997
1049,0.3638843595981598,0.47725892066955566,0.95,0.84,0.0004999999999999997
1050,0.3638821542263031,0.47724828124046326,0.95,0.84,0.0004999999999999997
1051,0.3638799786567688,0.4772377908229828,0.95,0.84,0.0004999999999999997
1052,0.3638778030872345,0.4772273898124695,0.95,0.84,0.0004999999999999997
1053,0.36387568712234497,0.4772172272205353,0.95,0.84,0.0004999999999999997
1054,0.36387357115745544,0.4772072732448578,0.95,0.84,0.0004999999999999997
1055,0.36387139558792114,0.47719740867614746,0.95,0.84,0.0004999999999999997
1056,0.36386924982070923,0.47718772292137146,0.95,0.84,0.0004999999999999997
1057,0.3638670742511749,0.477178156375885,0.95,0.84,0.0004999999999999997
1058,0.36386504769325256,0.47716864943504333,0.95,0.84,0.0004999999999999997
1059,0.3638628423213959,0.4771595001220703,0.95,0.84,0.0004999999999999997
1060,0.36386072635650635,0.4771503508090973,0.95,0.84,0.0004999999999999997
1061,0.36385875940322876,0.47714129090309143,0.95,0.84,0.0004999999999999997
1062,0.3638566732406616,0.4771323800086975,0.95,0.84,0.0004999999999999997
1063,0.36385464668273926,0.4771236479282379,0.95,0.84,0.0004999999999999997
1064,0.3638526201248169,0.47711503505706787,0.95,0.84,0.0004999999999999997
1065,0.36385056376457214,0.4771066904067993,0.95,0.84,0.0004999999999999997
1066,0.36384856700897217,0.4770985543727875,0.95,0.84,0.0004999999999999997
1067,0.3638465106487274,0.47709041833877563,0.95,0.84,0.0004999999999999997
1068,0.36384451389312744,0.4770825207233429,0.95,0.84,0.0004999999999999997
1069,0.36384257674217224,0.4770747125148773,0.95,0.84,0.0004999999999999997
1070,0.3638405501842499,0.4770672917366028,0.95,0.84,0.0004999999999999997
1071,0.3638385832309723,0.47705981135368347,0.95,0.84,0.0004999999999999997
1072,0.3638366460800171,0.4770524203777313,0.95,0.84,0.0004999999999999997
1073,0.3638346493244171,0.47704529762268066,0.95,0.84,0.0004999999999999997
1074,0.3638327419757843,0.4770382046699524,0.95,0.84,0.0004999999999999997
1075,0.3638307452201843,0.4770311117172241,0.95,0.84,0.0004999999999999997
1076,0.3638288378715515,0.47702422738075256,0.95,0.84,0.0004999999999999997
1077,0.3638269007205963,0.47701770067214966,0.95,0.84,0.0004999999999999997
1078,0.3638250231742859,0.4770110845565796,0.95,0.84,0.0004999999999999997
1079,0.36382317543029785,0.47700464725494385,0.95,0.84,0.0004999999999999997
1080,0.36382126808166504,0.4769984483718872,0.95,0.84,0.0004999999999999997
1081,0.3638193607330322,0.4769924581050873,0.95,0.84,0.0004999999999999997
1082,0.3638174533843994,0.47698652744293213,0.95,0.84,0.0004999999999999997
1083,0.36381566524505615,0.47698071599006653,0.95,0.84,0.0004999999999999997
1084,0.3638138175010681,0.4769750237464905,0.95,0.84,0.0004999999999999997
1085,0.3638119399547577,0.4769693613052368,0.95,0.84,0.0004999999999999997
1086,0.36381015181541443,0.47696399688720703,0.95,0.84,0.0004999999999999997
1087,0.36380836367607117,0.4769587814807892,0.95,0.84,0.0004999999999999997
1088,0.36380648612976074,0.4769536852836609,0.95,0.84,0.0004999999999999997
1089,0.3638046681880951,0.47694864869117737,0.95,0.84,0.0004999999999999997
1090,0.3638029098510742,0.4769437909126282,0.95,0.84,0.0004999999999999997
1091,0.36380109190940857,0.4769389033317566,0.95,0.84,0.0004999999999999997
1092,0.36379939317703247,0.4769343137741089,0.95,0.84,0.0004999999999999997
1093,0.3637976050376892,0.4769299328327179,0.95,0.84,0.0004999999999999997
1094,0.36379578709602356,0.4769255816936493,0.95,0.84,0.0004999999999999997
1095,0.3637940585613251,0.4769214689731598,0.95,0.84,0.0004999999999999997
1096,0.3637923002243042,0.4769172668457031,0.95,0.84,0.0004999999999999997
1097,0.3637906014919281,0.47691336274147034,0.95,0.84,0.0004999999999999997
1098,0.36378878355026245,0.47690945863723755,0.95,0.84,0.0004999999999999997
1099,0.3637872040271759,0.47690582275390625,0.95,0.84,0.0004999999999999997
1100,0.36378544569015503,0.4769021272659302,0.95,0.84,0.0004999999999999997
1101,0.3637838065624237,0.47689858078956604,0.95,0.84,0.0004999999999999997
1102,0.36378204822540283,0.4768953323364258,0.95,0.84,0.0004999999999999997
1103,0.36378031969070435,0.47689202427864075,0.95,0.84,0.0004999999999999997
1104,0.36377865076065063,0.4768887758255005,0.95,0.84,0.0004999999999999997
1105,0.36377692222595215,0.4768858850002289,0.95,0.84,0.0004999999999999997
1106,0.363775372505188,0.47688305377960205,0.95,0.84,0.0004999999999999997
1107,0.36377373337745667,0.47688016295433044,0.95,0.84,0.0004999999999999997
1108,0.36377203464508057,0.4768775999546051,0.95,0.84,0.0004999999999999997
1109,0.36377036571502686,0.47687506675720215,0.95,0.84,0.0004999999999999997
1110,0.3637688159942627,0.4768727421760559,0.95,0.84,0.0004999999999999997
1111,0.3637671172618866,0.4768705368041992,0.95,0.84,0.0004999999999999997
1112,0.36376556754112244,0.4768681824207306,0.95,0.84,0.0004999999999999997
1113,0.3637639582157135,0.476866215467453,0.95,0.84,0.0004999999999999997
1114,0.36376234889030457,0.4768642783164978,0.95,0.84,0.0004999999999999997
1115,0.363760769367218,0.47686246037483215,0.95,0.84,0.0004999999999999997
1116,0.3637591600418091,0.47686073184013367,0.95,0.84,0.0004999999999999997
1117,0.36375758051872253,0.4768592119216919,0.95,0.84,0.0004999999999999997
1118,0.3637560307979584,0.47685760259628296,0.95,0.84,0.0004999999999999997
1119,0.36375439167022705,0.47685614228248596,0.95,0.84,0.0004999999999999997
1120,0.3637528717517853,0.4768548905849457,0.95,0.84,0.0004999999999999997
1121,0.36375129222869873,0.47685354948043823,0.95,0.84,0.0004999999999999997
1122,0.36374977231025696,0.47685250639915466,0.95,0.84,0.0004999999999999997
1123,0.3637482523918152,0.47685158252716064,0.95,0.84,0.0004999999999999997
1124,0.3637467324733734,0.4768507778644562,0.95,0.84,0.0004999999999999997
1125,0.36374524235725403,0.4768499433994293,0.95,0.84,0.0004999999999999997
1126,0.3637436628341675,0.4768492579460144,0.95,0.84,0.0004999999999999997
1127,0.3637421727180481,0.4768485724925995,0.95,0.84,0.0004999999999999997
1128,0.3637406826019287,0.47684815526008606,0.95,0.84,0.0004999999999999997
1129,0.36373913288116455,0.47684788703918457,0.95,0.84,0.0004999999999999997
1130,0.36373770236968994,0.47684746980667114,0.95,0.84,0.0004999999999999997
1131,0.36373618245124817,0.47684723138809204,0.95,0.84,0.0004999999999999997
1132,0.36373478174209595,0.4768470823764801,0.95,0.84,0.0004999999999999997
1133,0.36373329162597656,0.47684699296951294,0.95,0.84,0.0004999999999999997
1134,0.36373183131217957,0.47684699296951294,0.95,0.84,0.0004999999999999997
1135,0.36373040080070496,0.47684720158576965,0.95,0.84,0.0004999999999999997
1136,0.36372891068458557,0.4768473505973816,0.95,0.84,0.0004999999999999997
1137,0.36372753977775574,0.4768475592136383,0.95,0.84,0.0004999999999999997
1138,0.36372610926628113,0.47684788703918457,0.95,0.84,0.0004999999999999997
1139,0.3637246787548065,0.4768484830856323,0.95,0.84,0.0004999999999999997
1140,0.3637232482433319,0.4768490195274353,0.95,0.84,0.0004999999999999997
1141,0.3637218177318573,0.47684964537620544,0.95,0.84,0.0004999999999999997
1142,0.3637203872203827,0.47685036063194275,0.95,0.84,0.0004999999999999997
1143,0.3637189567089081,0.476851224899292,0.95,0.84,0.0004999999999999997
1144,0.36371761560440063,0.47685205936431885,0.95,0.84,0.0004999999999999997
1145,0.3637163043022156,0.4768531024456024,0.95,0.84,0.0004999999999999997
1146,0.36371487379074097,0.47685423493385315,0.95,0.84,0.0004999999999999997
1147,0.36371350288391113,0.47685539722442627,0.95,0.84,0.0004999999999999997
1148,0.3637121319770813,0.47685667872428894,0.95,0.84,0.0004999999999999997
1149,0.36371076107025146,0.4768580198287964,0.95,0.84,0.0004999999999999997
1150,0.36370933055877686,0.47685950994491577,0.95,0.84,0.0004999999999999997
1151,0.3637080490589142,0.4768608808517456,0.95,0.84,0.0004999999999999997
1152,0.36370670795440674,0.476862370967865,0.95,0.84,0.0004999999999999997
1153,0.36370527744293213,0.47686395049095154,0.95,0.84,0.0004999999999999997
1154,0.36370399594306946,0.47686558961868286,0.95,0.84,0.0004999999999999997
1155,0.363702654838562,0.4768671691417694,0.95,0.84,0.0004999999999999997
1156,0.36370131373405457,0.47686898708343506,0.95,0.84,0.0004999999999999997
1157,0.3637000024318695,0.47687068581581116,0.95,0.84,0.0004999999999999997
1158,0.36369869112968445,0.47687268257141113,0.95,0.84,0.0004999999999999997
1159,0.36369743943214417,0.47687461972236633,0.95,0.84,0.0004999999999999997
1160,0.3636961281299591,0.4768766760826111,0.95,0.84,0.0004999999999999997
1161,0.3636948764324188,0.4768787622451782,0.95,0.84,0.0004999999999999997
1162,0.36369359493255615,0.4768810272216797,0.95,0.84,0.0004999999999999997
1163,0.3636922538280487,0.476883202791214,0.95,0.84,0.0004999999999999997
1164,0.3636910319328308,0.4768855571746826,0.95,0.84,0.0004999999999999997
1165,0.36368972063064575,0.47688794136047363,0.95,0.84,0.0004999999999999997
1166,0.3636884391307831,0.4768904149532318,0.95,0.84,0.0004999999999999997
1167,0.3636872470378876,0.4768929183483124,0.95,0.84,0.0004999999999999997
1168,0.3636859953403473,0.4768954813480377,0.95,0.84,0.0004999999999999997
1169,0.36368468403816223,0.47689810395240784,0.95,0.84,0.0004999999999999997
1170,0.36368346214294434,0.47690069675445557,0.95,0.84,0.0004999999999999997
1171,0.36368221044540405,0.4769032299518585,0.95,0.84,0.0004999999999999997
1172,0.36368101835250854,0.4769059717655182,0.95,0.84,0.0004999999999999997
1173,0.36367976665496826,0.4769086539745331,0.95,0.84,0.0004999999999999997
1174,0.363678514957428,0.4769115447998047,0.95,0.84,0.0004999999999999997
1175,0.36367738246917725,0.4769143760204315,0.95,0.84,0.0004999999999999997
1176,0.36367616057395935,0.47691741585731506,0.95,0.84,0.0004999999999999997
1177,0.3636748790740967,0.47692036628723145,0.95,0.84,0.0004999999999999997
1178,0.36367374658584595,0.4769233763217926,0.95,0.84,0.0004999999999999997
1179,0.36367252469062805,0.47692638635635376,0.95,0.84,0.0004999999999999997
1180,0.3636713922023773,0.476929634809494,0.95,0.84,0.0004999999999999997
1181,0.3636701703071594,0.4769328236579895,0.95,0.84,0.0004999999999999997
1182,0.3636690080165863,0.47693610191345215,0.95,0.84,0.0004999999999999997
1183,0.3636677861213684,0.4769393801689148,0.95,0.84,0.0004999999999999997
1184,0.3636666238307953,0.4769427478313446,0.95,0.84,0.0004999999999999997
1185,0.36366546154022217,0.47694605588912964,0.95,0.84,0.0004999999999999997
1186,0.36366432905197144,0.4769495129585266,0.95,0.84,0.0004999999999999997
1187,0.3636631667613983,0.4769531190395355,0.95,0.84,0.0004999999999999997
1188,0.3636620342731476,0.4769565165042877,0.95,0.84,0.0004999999999999997
1189,0.3636608123779297,0.476960152387619,0.95,0.84,0.0004999999999999997
1190,0.36365970969200134,0.47696369886398315,0.95,0.84,0.0004999999999999997
1191,0.363658607006073,0.4769672453403473,0.95,0.84,0.0004999999999999997
1192,0.3636574149131775,0.47697097063064575,0.95,0.84,0.0004999999999999997
1193,0.36365628242492676,0.47697463631629944,0.95,0.84,0.0004999999999999997
1194,0.3636551797389984,0.4769783020019531,0.95,0.84,0.0004999999999999997
1195,0.36365410685539246,0.47698208689689636,0.95,0.84,0.0004999999999999997
1196,0.3636530041694641,0.47698578238487244,0.95,0.84,0.0004999999999999997
1197,0.363651841878891,0.47698959708213806,0.95,0.84,0.0004999999999999997
1198,0.36365070939064026,0.4769934415817261,0.95,0.84,0.0004999999999999997
1199,0.3636496365070343,0.47699734568595886,0.95,0.84,0.0004999999999999997
1200,0.36364853382110596,0.4770013391971588,0.95,0.84,0.0004999999999999997
1201,0.3636474609375,0.4770052433013916,0.95,0.84,0.0004999999999999997
1202,0.36364632844924927,0.47700926661491394,0.95,0.84,0.0004999999999999997
1203,0.3636452555656433,0.47701334953308105,0.95,0.84,0.0004999999999999997
1204,0.36364421248435974,0.47701749205589294,0.95,0.84,0.0004999999999999997
1205,0.3636431396007538,0.47702163457870483,0.95,0.84,0.0004999999999999997
1206,0.3636421263217926,0.47702574729919434,0.95,0.84,0.0004999999999999997
1207,0.36364105343818665,0.47702983021736145,0.95,0.84,0.0004999999999999997
1208,0.3636399507522583,0.47703421115875244,0.95,0.84,0.0004999999999999997
1209,0.36363887786865234,0.47703850269317627,0.95,0.84,0.0004999999999999997
1210,0.3636378049850464,0.47704264521598816,0.95,0.84,0.0004999999999999997
1211,0.3636367917060852,0.4770468771457672,0.95,0.84,0.0004999999999999997
1212,0.3636358380317688,0.477051317691803,0.95,0.84,0.0004999999999999997
1213,0.36363476514816284,0.4770555794239044,0.95,0.84,0.0004999999999999997
1214,0.3636336922645569,0.47705990076065063,0.95,0.84,0.0004999999999999997
1215,0.3636326491832733,0.477064311504364,0.95,0.84,0.0004999999999999997
1216,0.36363160610198975,0.4770686626434326,0.95,0.84,0.0004999999999999997
1217,0.3636306822299957,0.4770731031894684,0.95,0.84,0.0004999999999999997
1218,0.3636295199394226,0.4770774841308594,0.95,0.84,0.0004999999999999997
1219,0.36362865567207336,0.47708186507225037,0.95,0.84,0.0004999999999999997
1220,0.3636276125907898,0.47708651423454285,0.95,0.84,0.0004999999999999997
1221,0.3636265695095062,0.477090984582901,0.95,0.84,0.0004999999999999997
1222,0.36362555623054504,0.47709545493125916,0.95,0.84,0.0004999999999999997
1223,0.3636246621608734,0.47710007429122925,0.95,0.84,0.0004999999999999997
1224,0.3636235296726227,0.4771045446395874,0.95,0.84,0.0004999999999999997
1225,0.3636225163936615,0.4771091938018799,0.95,0.84,0.0004999999999999997
1226,0.3636215925216675,0.4771137237548828,0.95,0.84,0.0004999999999999997
1227,0.3636206090450287,0.47711846232414246,0.95,0.84,0.0004999999999999997
1228,0.3636196553707123,0.47712311148643494,0.95,0.84,0.0004999999999999997
1229,0.3636186718940735,0.47712787985801697,0.95,0.84,0.0004999999999999997
1230,0.36361774802207947,0.47713252902030945,0.95,0.84,0.0004999999999999997
1231,0.3636167645454407,0.4771372973918915,0.95,0.84,0.0004999999999999997
1232,0.3636157512664795,0.47714197635650635,0.95,0.84,0.0004999999999999997
1233,0.3636147975921631,0.4771467447280884,0.95,0.84,0.0004999999999999997
1234,0.36361390352249146,0.477151483297348,0.95,0.84,0.0004999999999999997
1235,0.3636128604412079,0.4771563708782196,0.95,0.84,0.0004999999999999997
1236,0.36361199617385864,0.4771612286567688,0.95,0.84,0.0004999999999999997
1237,0.363611102104187,0.47716593742370605,0.95,0.84,0.0004999999999999997
1238,0.3636101186275482,0.4771706461906433,0.95,0.84,0.0004999999999999997
1239,0.3636091649532318,0.4771755337715149,0.95,0.84,0.0004999999999999997
1240,0.3636082410812378,0.47718051075935364,0.95,0.84,0.0004999999999999997
1241,0.3636073172092438,0.4771853983402252,0.95,0.84,0.0004999999999999997
1242,0.36360642313957214,0.4771902561187744,0.95,0.84,0.0004999999999999997
1243,0.36360546946525574,0.4771950840950012,0.95,0.84,0.0004999999999999997
1244,0.3636045455932617,0.47720015048980713,0.95,0.84,0.0004999999999999997
1245,0.3636036217212677,0.4772051274776459,0.95,0.84,0.0004999999999999997
1246,0.36360275745391846,0.47721007466316223,0.95,0.84,0.0004999999999999997
1247,0.36360183358192444,0.4772152006626129,0.95,0.84,0.0004999999999999997
1248,0.3636009693145752,0.47722023725509644,0.95,0.84,0.0004999999999999997
1249,0.3636000454425812,0.4772252142429352,0.95,0.84,0.0004999999999999997
1250,0.36359912157058716,0.47723037004470825,0.95,0.84,0.0004999999999999997
1251,0.36359816789627075,0.4772355258464813,0.95,0.84,0.0004999999999999997
1252,0.3635973334312439,0.47724080085754395,0.95,0.84,0.0004999999999999997
1253,0.3635963797569275,0.4772459864616394,0.95,0.84,0.0004999999999999997
1254,0.363595575094223,0.4772511422634125,0.95,0.84,0.0004999999999999997
1255,0.3635947108268738,0.47725632786750793,0.95,0.84,0.0004999999999999997
1256,0.3635938763618469,0.4772615432739258,0.95,0.84,0.0004999999999999997
1257,0.3635929524898529,0.47726666927337646,0.95,0.84,0.0004999999999999997
1258,0.36359214782714844,0.47727206349372864,0.95,0.84,0.0004999999999999997
1259,0.36359119415283203,0.47727730870246887,0.95,0.84,0.0004999999999999997
1260,0.36359038949012756,0.4772826135158539,0.95,0.84,0.0004999999999999997
1261,0.36358946561813354,0.47728806734085083,0.95,0.84,0.0004999999999999997
1262,0.3635886013507843,0.47729358077049255,0.95,0.84,0.0004999999999999997
1263,0.3635878264904022,0.4772990942001343,0.95,0.84,0.0004999999999999997
1264,0.3635869324207306,0.47730469703674316,0.95,0.84,0.0004999999999999997
1265,0.3635861277580261,0.47731032967567444,0.95,0.84,0.0004999999999999997
1266,0.3635852336883545,0.4773160219192505,0.95,0.84,0.0004999999999999997
1267,0.36358439922332764,0.4773217439651489,0.95,0.84,0.0004999999999999997
1268,0.3635835647583008,0.47732752561569214,0.95,0.84,0.0004999999999999997
1269,0.3635827302932739,0.4773333668708801,0.95,0.84,0.0004999999999999997
1270,0.36358195543289185,0.47733932733535767,0.95,0.84,0.0004999999999999997
1271,0.363581120967865,0.47734537720680237,0.95,0.84,0.0004999999999999997
1272,0.36358028650283813,0.477351576089859,0.95,0.84,0.0004999999999999997
1273,0.3635794520378113,0.4773577153682709,0.95,0.84,0.0004999999999999997
1274,0.36357855796813965,0.4773638844490051,0.95,0.84,0.0004999999999999997
1275,0.36357784271240234,0.4773702323436737,0.95,0.84,0.0004999999999999997
1276,0.3635770082473755,0.47737663984298706,0.95,0.84,0.0004999999999999997
1277,0.363576203584671,0.4773833453655243,0.95,0.84,0.0004999999999999997
1278,0.36357536911964417,0.4773900508880615,0.95,0.84,0.0004999999999999997
1279,0.3635745346546173,0.47739681601524353,0.95,0.84,0.0004999999999999997
1280,0.3635738492012024,0.4774039089679718,0.95,0.84,0.0004999999999999997
1281,0.36357298493385315,0.4774109125137329,0.95,0.84,0.0004999999999999997
1282,0.36357223987579346,0.47741812467575073,0.95,0.84,0.0004999999999999997
1283,0.3635714054107666,0.4774254262447357,0.95,0.84,0.0004999999999999997
1284,0.3635706305503845,0.4774330258369446,0.95,0.84,0.0004999999999999997
1285,0.36356982588768005,0.47744059562683105,0.95,0.84,0.0004999999999999997
1286,0.3635690212249756,0.477448433637619,0.95,0.84,0.0004999999999999997
1287,0.3635682165622711,0.4774562418460846,0.95,0.84,0.0004999999999999997
1288,0.3635675013065338,0.4774642288684845,0.95,0.84,0.0004999999999999997
1289,0.3635667860507965,0.477472722530365,0.95,0.84,0.0004999999999999997
1290,0.3635658919811249,0.4774811863899231,0.95,0.84,0.0004999999999999997
1291,0.3635651469230652,0.47748976945877075,0.95,0.84,0.0004999999999999997
1292,0.3635644018650055,0.4774985611438751,0.95,0.84,0.0004999999999999997
1293,0.3635636568069458,0.47750741243362427,0.95,0.84,0.0004999999999999997
1294,0.3635628819465637,0.47751668095588684,0.95,0.84,0.0004999999999999997
1295,0.36356213688850403,0.47752609848976135,0.95,0.84,0.0004999999999999997
1296,0.36356136202812195,0.47753554582595825,0.95,0.84,0.0004999999999999997
1297,0.36356064677238464,0.47754544019699097,0.95,0.84,0.0004999999999999997
1298,0.3635598421096802,0.47755539417266846,0.95,0.84,0.0004999999999999997
1299,0.3635590672492981,0.4775656461715698,0.95,0.84,0.0004999999999999997
1300,0.3635583519935608,0.4775761365890503,0.95,0.84,0.0004999999999999997
1301,0.3635576665401459,0.47758665680885315,0.95,0.84,0.0004999999999999997
1302,0.3635568916797638,0.4775973856449127,0.95,0.84,0.0004999999999999997
1303,0.3635561466217041,0.4776085317134857,0.95,0.84,0.0004999999999999997
1304,0.3635554611682892,0.4776197373867035,0.95,0.84,0.0004999999999999997
1305,0.3635546863079071,0.4776310622692108,0.95,0.84,0.0004999999999999997
1306,0.3635539710521698,0.4776427447795868,0.95,0.84,0.0004999999999999997
1307,0.3635532855987549,0.4776545464992523,0.95,0.84,0.0004999999999999997
1308,0.3635525405406952,0.477666437625885,0.95,0.84,0.0004999999999999997
1309,0.3635517954826355,0.47767817974090576,0.95,0.84,0.0004999999999999997
1310,0.3635510504245758,0.47769033908843994,0.95,0.84,0.0004999999999999997
1311,0.3635503649711609,0.4777028560638428,0.95,0.84,0.0004999999999999997
1312,0.3635495901107788,0.4777153730392456,0.95,0.84,0.0004999999999999997
1313,0.3635489344596863,0.47772806882858276,0.95,0.84,0.0004999999999999997
1314,0.36354824900627136,0.4777407944202423,0.95,0.84,0.0004999999999999997
1315,0.36354759335517883,0.4777536690235138,0.95,0.84,0.0004999999999999997
1316,0.36354687809944153,0.47776684165000916,0.95,0.84,0.0004999999999999997
1317,0.36354610323905945,0.4777801036834717,0.95,0.84,0.0004999999999999997
1318,0.36354541778564453,0.4777931869029999,0.95,0.84,0.0004999999999999997
1319,0.3635447323322296,0.47780653834342957,0.95,0.84,0.0004999999999999997
1320,0.3635440468788147,0.4778202176094055,0.95,0.84,0.0004999999999999997
1321,0.3635433614253998,0.47783347964286804,0.95,0.84,0.0004999999999999997
1322,0.3635426461696625,0.4778469204902649,0.95,0.84,0.0004999999999999997
1323,0.36354196071624756,0.47786030173301697,0.95,0.84,0.0004999999999999997
1324,0.36354130506515503,0.47787395119667053,0.95,0.84,0.0004999999999999997
1325,0.3635406196117401,0.4778878092765808,0.95,0.84,0.0004999999999999997
1326,0.3635399341583252,0.4779016375541687,0.95,0.84,0.0004999999999999997
1327,0.3635392487049103,0.47791552543640137,0.95,0.84,0.0004999999999999997
1328,0.36353856325149536,0.47792935371398926,0.95,0.84,0.0004999999999999997
1329,0.36353781819343567,0.47794342041015625,0.95,0.84,0.0004999999999999997
1330,0.3635372221469879,0.47795742750167847,0.95,0.84,0.0004999999999999997
1331,0.363536536693573,0.47797152400016785,0.95,0.84,0.0004999999999999997
1332,0.36353588104248047,0.47798553109169006,0.95,0.84,0.0004999999999999997
1333,0.3635352849960327,0.4779997169971466,0.95,0.84,0.0004999999999999997
1334,0.3635345697402954,0.4780140221118927,0.95,0.84,0.0004999999999999997
1335,0.3635338842868805,0.478028267621994,0.95,0.84,0.0004999999999999997
1336,0.3635331988334656,0.47804269194602966,0.95,0.84,0.0004999999999999997
1337,0.36353257298469543,0.47805705666542053,0.95,0.84,0.0004999999999999997
1338,0.3635319173336029,0.4780716598033905,0.95,0.84,0.0004999999999999997
1339,0.363531231880188,0.47808605432510376,0.95,0.84,0.0004999999999999997
1340,0.363530695438385,0.47810086607933044,0.95,0.84,0.0004999999999999997
1341,0.3635300397872925,0.4781157374382019,0.95,0.84,0.0004999999999999997
1342,0.36352938413619995,0.47813060879707336,0.95,0.84,0.0004999999999999997
1343,0.36352869868278503,0.478145569562912,0.95,0.84,0.0004999999999999997
1344,0.3635280132293701,0.4781606197357178,0.95,0.84,0.0004999999999999997
1345,0.3635273873806,0.47817596793174744,0.95,0.84,0.0004999999999999997
1346,0.3635267913341522,0.47819122672080994,0.95,0.84,0.0004999999999999997
1347,0.36352619528770447,0.478206604719162,0.95,0.84,0.0004999999999999997
1348,0.36352548003196716,0.47822239995002747,0.95,0.84,0.0004999999999999997
1349,0.363524854183197,0.47823819518089294,0.95,0.84,0.0004999999999999997
1350,0.3635241985321045,0.47825393080711365,0.95,0.84,0.0004999999999999997
1351,0.36352360248565674,0.47827011346817017,0.95,0.84,0.0004999999999999997
1352,0.3635229766368866,0.47828635573387146,0.95,0.84,0.0004999999999999997
1353,0.36352238059043884,0.4783027768135071,0.95,0.84,0.0004999999999999997
1354,0.3635217249393463,0.4783194363117218,0.95,0.84,0.0004999999999999997
1355,0.36352112889289856,0.47833606600761414,0.95,0.84,0.0004999999999999997
1356,0.36352047324180603,0.47835299372673035,0.95,0.84,0.0004999999999999997
1357,0.36351990699768066,0.4783701002597809,0.95,0.84,0.0004999999999999997
1358,0.3635193109512329,0.47838759422302246,0.95,0.84,0.0004999999999999997
1359,0.363518625497818,0.4784051477909088,0.95,0.84,0.0004999999999999997
1360,0.3635180592536926,0.47842299938201904,0.95,0.84,0.0004999999999999997
1361,0.36351749300956726,0.47844114899635315,0.95,0.84,0.0004999999999999997
1362,0.36351680755615234,0.47845935821533203,0.95,0.84,0.0004999999999999997
1363,0.3635162115097046,0.47847774624824524,0.95,0.84,0.0004999999999999997
1364,0.363515704870224,0.47849637269973755,0.95,0.84,0.0004999999999999997
1365,0.3635150194168091,0.4785151779651642,0.95,0.84,0.0004999999999999997
1366,0.36351439356803894,0.47853413224220276,0.95,0.84,0.0004999999999999997
1367,0.3635138273239136,0.4785533547401428,0.95,0.84,0.0004999999999999997
1368,0.3635132312774658,0.47857269644737244,0.95,0.84,0.0004999999999999997
1369,0.36351269483566284,0.4785923361778259,0.95,0.84,0.0004999999999999997
1370,0.3635120689868927,0.4786122143268585,0.95,0.84,0.0004999999999999997
1371,0.36351144313812256,0.4786325693130493,0.95,0.84,0.0004999999999999997
1372,0.3635109066963196,0.47865310311317444,0.95,0.84,0.0004999999999999997
1373,0.3635103702545166,0.4786738157272339,0.95,0.84,0.0004999999999999997
1374,0.36350974440574646,0.4786947965621948,0.95,0.84,0.0004999999999999997
1375,0.3635092079639435,0.47871607542037964,0.95,0.84,0.0004999999999999997
1376,0.36350858211517334,0.47873756289482117,0.95,0.84,0.0004999999999999997
1377,0.3635079860687256,0.47875940799713135,0.95,0.84,0.0004999999999999997
1378,0.3635075092315674,0.47878143191337585,0.95,0.84,0.0004999999999999997
1379,0.36350688338279724,0.4788036346435547,0.95,0.84,0.0004999999999999997
1380,0.3635062873363495,0.4788261353969574,0.95,0.84,0.0004999999999999997
1381,0.3635057210922241,0.47884875535964966,0.95,0.84,0.0004999999999999997
1382,0.36350518465042114,0.4788717031478882,0.95,0.84,0.0004999999999999997
1383,0.36350464820861816,0.4788948893547058,0.95,0.84,0.0004999999999999997
1384,0.363504022359848,0.4789182245731354,0.95,0.84,0.0004999999999999997
1385,0.36350342631340027,0.47894179821014404,0.95,0.84,0.0004999999999999997
1386,0.3635028898715973,0.4789655804634094,0.95,0.84,0.0004999999999999997
1387,0.3635023236274719,0.47898972034454346,0.95,0.84,0.0004999999999999997
1388,0.36350181698799133,0.47901394963264465,0.95,0.84,0.0004999999999999997
1389,0.36350125074386597,0.47903841733932495,0.95,0.84,0.0004999999999999997
1390,0.3635006844997406,0.4790631830692291,0.95,0.84,0.0004999999999999997
1391,0.36350008845329285,0.4790879786014557,0.95,0.84,0.0004999999999999997
1392,0.3634994924068451,0.4791131615638733,0.95,0.84,0.0004999999999999997
1393,0.3634990453720093,0.4791386127471924,0.95,0.84,0.0004999999999999997
1394,0.3634984493255615,0.4791642725467682,0.95,0.84,0.0004999999999999997
1395,0.36349791288375854,0.47919005155563354,0.95,0.84,0.0004999999999999997
1396,0.36349737644195557,0.479216068983078,0.95,0.84,0.0004999999999999997
1397,0.3634968101978302,0.47924232482910156,0.95,0.84,0.0004999999999999997
1398,0.363496333360672,0.47926872968673706,0.95,0.84,0.0004999999999999997
1399,0.36349573731422424,0.4792952835559845,0.95,0.84,0.0004999999999999997
1400,0.36349523067474365,0.47932201623916626,0.95,0.84,0.0004999999999999997
1401,0.3634946942329407,0.47934895753860474,0.95,0.84,0.0004999999999999997
1402,0.3634941577911377,0.4793758690357208,0.95,0.84,0.0004999999999999997
1403,0.3634936511516571,0.47940319776535034,0.95,0.84,0.0004999999999999997
1404,0.36349308490753174,0.4794304668903351,0.95,0.84,0.0004999999999999997
1405,0.36349254846572876,0.4794580042362213,0.95,0.84,0.0004999999999999997
1406,0.36349204182624817,0.47948580980300903,0.95,0.84,0.0004999999999999997
1407,0.3634915053844452,0.4795137047767639,0.95,0.84,0.0004999999999999997
1408,0.3634909391403198,0.4795416593551636,0.95,0.84,0.0004999999999999997
1409,0.363490492105484,0.47956979274749756,0.95,0.84,0.0004999999999999997
1410,0.36348995566368103,0.47959816455841064,0.95,0.84,0.0004999999999999997
1411,0.36348941922187805,0.4796266555786133,0.95,0.84,0.0004999999999999997
1412,0.3634888827800751,0.47965529561042786,0.95,0.84,0.0004999999999999997
1413,0.3634883463382721,0.47968417406082153,0.95,0.84,0.0004999999999999997
1414,0.3634878993034363,0.47971290349960327,0.95,0.84,0.0004999999999999997
1415,0.3634873330593109,0.47974202036857605,0.95,0.84,0.0004999999999999997
1416,0.3634868264198303,0.4797711670398712,0.95,0.84,0.0004999999999999997
1417,0.36348628997802734,0.4798004627227783,0.95,0.84,0.0004999999999999997
1418,0.36348578333854675,0.47982969880104065,0.95,0.84,0.0004999999999999997
1419,0.3634852468967438,0.4798593819141388,0.95,0.84,0.0004999999999999997
1420,0.36348479986190796,0.47988900542259216,0.95,0.84,0.0004999999999999997
1421,0.36348429322242737,0.4799187481403351,0.95,0.84,0.0004999999999999997
1422,0.3634837865829468,0.4799485504627228,0.95,0.84,0.0004999999999999997
1423,0.3634832799434662,0.4799785912036896,0.95,0.84,0.0004999999999999997
1424,0.3634827435016632,0.48000869154930115,0.95,0.84,0.0004999999999999997
1425,0.3634823262691498,0.4800388813018799,0.95,0.84,0.0004999999999999997
1426,0.36348170042037964,0.4800691306591034,0.95,0.84,0.0004999999999999997
1427,0.36348122358322144,0.4800996482372284,0.95,0.84,0.0004999999999999997
1428,0.363480806350708,0.48013031482696533,0.95,0.84,0.0004999999999999997
1429,0.3634802997112274,0.48016098141670227,0.95,0.84,0.0004999999999999997
1430,0.3634798526763916,0.48019176721572876,0.95,0.84,0.0004999999999999997
1431,0.36347925662994385,0.48022279143333435,0.95,0.84,0.0004999999999999997
1432,0.3634788393974304,0.4802538752555847,0.95,0.84,0.0004999999999999997
1433,0.3634783625602722,0.4802851974964142,0.95,0.84,0.0004999999999999997
1434,0.36347782611846924,0.4803164303302765,0.95,0.84,0.0004999999999999997
1435,0.36347734928131104,0.4803479015827179,0.95,0.84,0.0004999999999999997
1436,0.3634769022464752,0.48037952184677124,0.95,0.84,0.0004999999999999997
1437,0.36347639560699463,0.4804112911224365,0.95,0.84,0.0004999999999999997
1438,0.3634759187698364,0.48044300079345703,0.95,0.84,0.0004999999999999997
1439,0.36347538232803345,0.4804748296737671,0.95,0.84,0.0004999999999999997
1440,0.36347496509552,0.4805067777633667,0.95,0.84,0.0004999999999999997
1441,0.36347445845603943,0.48053914308547974,0.95,0.84,0.0004999999999999997
1442,0.3634740114212036,0.4805712401866913,0.95,0.84,0.0004999999999999997
1443,0.363473504781723,0.4806034564971924,0.95,0.83,0.0004999999999999997
1444,0.3634730279445648,0.48063600063323975,0.95,0.83,0.0004999999999999997
1445,0.3634725511074066,0.4806685745716095,0.95,0.83,0.0004999999999999997
1446,0.3634720742702484,0.48070114850997925,0.95,0.83,0.0004999999999999997
1447,0.3634716272354126,0.4807339608669281,0.95,0.83,0.0004999999999999997
1448,0.3634711503982544,0.48076674342155457,0.95,0.83,0.0004999999999999997
1449,0.36347058415412903,0.4807998538017273,0.95,0.83,0.0004999999999999997
1450,0.363470196723938,0.48083314299583435,0.95,0.83,0.0004999999999999997
1451,0.3634697198867798,0.48086628317832947,0.95,0.83,0.0004999999999999997
1452,0.36346927285194397,0.4808996915817261,0.95,0.83,0.0004999999999999997
1453,0.3634687662124634,0.4809330701828003,0.95,0.83,0.0004999999999999997
1454,0.36346834897994995,0.4809669256210327,0.95,0.83,0.0004999999999999997
1455,0.36346787214279175,0.48100078105926514,0.95,0.83,0.0004999999999999997
1456,0.36346739530563354,0.48103439807891846,0.95,0.83,0.0004999999999999997
1457,0.36346694827079773,0.48106834292411804,0.95,0.83,0.0004999999999999997
1458,0.36346644163131714,0.48110222816467285,0.95,0.83,0.0004999999999999997
1459,0.3634659945964813,0.481136679649353,0.95,0.83,0.0004999999999999997
1460,0.3634655475616455,0.4811708927154541,0.95,0.83,0.0004999999999999997
1461,0.3634650707244873,0.48120513558387756,0.95,0.83,0.0004999999999999997
1462,0.3634646534919739,0.4812396168708801,0.95,0.83,0.0004999999999999997
1463,0.3634643256664276,0.4812743067741394,0.95,0.83,0.0004999999999999997
1464,0.36346375942230225,0.48130905628204346,0.95,0.83,0.0004999999999999997
1465,0.36346331238746643,0.4813437759876251,0.95,0.83,0.0004999999999999997
1466,0.3634628653526306,0.48137858510017395,0.95,0.83,0.0004999999999999997
1467,0.3634624481201172,0.48141366243362427,0.95,0.83,0.0004999999999999997
1468,0.3634619414806366,0.4814487397670746,0.95,0.83,0.0004999999999999997
1469,0.36346152424812317,0.48148390650749207,0.95,0.83,0.0004999999999999997
1470,0.36346110701560974,0.48151934146881104,0.95,0.83,0.0004999999999999997
1471,0.36346063017845154,0.4815545678138733,0.95,0.83,0.0004999999999999997
1472,0.36346015334129333,0.4815899729728699,0.95,0.83,0.0004999999999999997
1473,0.3634597361087799,0.48162567615509033,0.95,0.83,0.0004999999999999997
1474,0.3634592890739441,0.48166128993034363,0.95,0.83,0.0004999999999999997
1475,0.36345893144607544,0.48169711232185364,0.95,0.83,0.0004999999999999997
1476,0.36345839500427246,0.4817327857017517,0.95,0.83,0.0004999999999999997
1477,0.3634580373764038,0.4817688763141632,0.95,0.83,0.0004999999999999997
1478,0.3634575605392456,0.4818049371242523,0.95,0.83,0.0004999999999999997
1479,0.3634571135044098,0.4818410873413086,0.95,0.83,0.0004999999999999997
1480,0.3634566366672516,0.48187732696533203,0.95,0.83,0.0004999999999999997
1481,0.36345627903938293,0.48191341757774353,0.95,0.83,0.0004999999999999997
1482,0.36345574259757996,0.48194992542266846,0.95,0.83,0.0004999999999999997
1483,0.3634553551673889,0.4819863438606262,0.95,0.83,0.0004999999999999997
1484,0.3634549379348755,0.4820227324962616,0.95,0.83,0.0004999999999999997
1485,0.36345452070236206,0.4820593595504761,0.95,0.83,0.0004999999999999997
1486,0.363454133272171,0.4820958971977234,0.95,0.83,0.0004999999999999997
1487,0.36345359683036804,0.48213279247283936,0.95,0.83,0.0004999999999999997
1488,0.363453209400177,0.48216959834098816,0.95,0.83,0.0004999999999999997
1489,0.36345282196998596,0.48220643401145935,0.95,0.83,0.0004999999999999997
1490,0.36345234513282776,0.4822433590888977,0.95,0.83,0.0004999999999999997
1491,0.3634519577026367,0.482280433177948,0.95,0.83,0.0004999999999999997
1492,0.3634515404701233,0.48231741786003113,0.95,0.83,0.0004999999999999997
1493,0.3634510934352875,0.48235461115837097,0.95,0.83,0.0004999999999999997
1494,0.36345070600509644,0.48239174485206604,0.95,0.83,0.0004999999999999997
1495,0.363450288772583,0.4824289381504059,0.95,0.83,0.0004999999999999997
1496,0.3634498715400696,0.4824663996696472,0.95,0.83,0.0004999999999999997
1497,0.363449364900589,0.4825037717819214,0.95,0.83,0.0004999999999999997
1498,0.36344894766807556,0.48254117369651794,0.95,0.83,0.0004999999999999997
1499,0.36344853043556213,0.4825785458087921,0.95,0.83,0.0004999999999999997
1500,0.36344826221466064,0.4826158583164215,0.95,0.83,0.0004999999999999997
1501,0.36344772577285767,0.48265349864959717,0.95,0.83,0.0004999999999999997
1502,0.36344730854034424,0.48269104957580566,0.95,0.83,0.0004999999999999997
1503,0.3634469211101532,0.4827285706996918,0.95,0.83,0.0004999999999999997
1504,0.3634464144706726,0.482766330242157,0.95,0.83,0.0004999999999999997
1505,0.36344605684280396,0.48280391097068787,0.95,0.83,0.0004999999999999997
1506,0.3634456694126129,0.4828416109085083,0.95,0.83,0.0004999999999999997
1507,0.3634452819824219,0.4828794598579407,0.95,0.83,0.0004999999999999997
1508,0.36344486474990845,0.48291707038879395,0.95,0.83,0.0004999999999999997
1509,0.363444447517395,0.48295485973358154,0.95,0.83,0.0004999999999999997
1510,0.3634439706802368,0.4829925298690796,0.95,0.83,0.0004999999999999997
1511,0.36344361305236816,0.4830302894115448,0.95,0.83,0.0004999999999999997
1512,0.3634432256221771,0.48306792974472046,0.95,0.83,0.0004999999999999997
1513,0.3634428083896637,0.4831058382987976,0.95,0.83,0.0004999999999999997
1514,0.36344239115715027,0.4831436574459076,0.95,0.83,0.0004999999999999997
1515,0.3634420335292816,0.48318129777908325,0.95,0.83,0.0004999999999999997
1516,0.3634415566921234,0.483219176530838,0.95,0.83,0.0004999999999999997
1517,0.36344119906425476,0.483256995677948,0.95,0.83,0.0004999999999999997
1518,0.36344078183174133,0.4832947850227356,0.95,0.83,0.0004999999999999997
1519,0.3634403347969055,0.4833326041698456,0.95,0.83,0.0004999999999999997
1520,0.36343997716903687,0.4833703339099884,0.95,0.83,0.0004999999999999997
1521,0.36343953013420105,0.48340821266174316,0.95,0.83,0.0004999999999999997
1522,0.3634391725063324,0.48344603180885315,0.95,0.83,0.0004999999999999997
1523,0.36343875527381897,0.48348385095596313,0.95,0.83,0.0004999999999999997
1524,0.3634384274482727,0.4835217297077179,0.95,0.83,0.0004999999999999997
1525,0.3634380102157593,0.483559250831604,0.95,0.83,0.0004999999999999997
1526,0.36343756318092346,0.4835970401763916,0.95,0.83,0.0004999999999999997
1527,0.36343714594841003,0.4836347997188568,0.95,0.83,0.0004999999999999997
1528,0.36343681812286377,0.48367249965667725,0.95,0.83,0.0004999999999999997
1529,0.36343634128570557,0.4837101101875305,0.95,0.83,0.0004999999999999997
1530,0.36343592405319214,0.48374757170677185,0.95,0.83,0.0004999999999999997
1531,0.36343565583229065,0.4837852120399475,0.95,0.83,0.0004999999999999997
1532,0.36343514919281006,0.4838229715824127,0.95,0.83,0.0004999999999999997
1533,0.3634347915649414,0.48386046290397644,0.95,0.83,0.0004999999999999997
1534,0.36343443393707275,0.483897864818573,0.95,0.83,0.0004999999999999997
1535,0.3634340167045593,0.48393547534942627,0.95,0.83,0.0004999999999999997
1536,0.3634335994720459,0.4839729070663452,0.95,0.83,0.0004999999999999997
1537,0.36343324184417725,0.4840102791786194,0.95,0.83,0.0004999999999999997
1538,0.3634328544139862,0.4840475022792816,0.95,0.83,0.0004999999999999997
1539,0.36343246698379517,0.4840849041938782,0.95,0.83,0.0004999999999999997
1540,0.36343204975128174,0.48412230610847473,0.95,0.83,0.0004999999999999997
1541,0.3634316623210907,0.4841594696044922,0.95,0.83,0.0004999999999999997
1542,0.36343133449554443,0.48419663310050964,0.95,0.83,0.0004999999999999997
1543,0.36343085765838623,0.4842337369918823,0.95,0.83,0.0004999999999999997
1544,0.3634304702281952,0.48427078127861023,0.95,0.83,0.0004999999999999997
1545,0.3634301424026489,0.4843079447746277,0.95,0.83,0.0004999999999999997
1546,0.3634297549724579,0.4843447804450989,0.95,0.83,0.0004999999999999997
1547,0.36342936754226685,0.4843817949295044,0.95,0.83,0.0004999999999999997
1548,0.3634289801120758,0.4844186305999756,0.95,0.83,0.0004999999999999997
1549,0.36342868208885193,0.48445555567741394,0.95,0.83,0.0004999999999999997
1550,0.3634282052516937,0.4844922721385956,0.95,0.83,0.0004999999999999997
1551,0.3634277582168579,0.48452895879745483,0.95,0.83,0.0004999999999999997
1552,0.36342743039131165,0.4845656156539917,0.95,0.83,0.0004999999999999997
1553,0.3634270429611206,0.484602153301239,0.95,0.83,0.0004999999999999997
1554,0.36342674493789673,0.4846387803554535,0.95,0.83,0.0004999999999999997
1555,0.3634262979030609,0.48467525839805603,0.95,0.82,0.0004999999999999997
1556,0.3634258508682251,0.484711617231369,0.95,0.82,0.0004999999999999997
1557,0.36342552304267883,0.484747976064682,0.95,0.82,0.0004999999999999997
1558,0.3634251356124878,0.4847842752933502,0.95,0.82,0.0004999999999999997
1559,0.3634248375892639,0.4848206639289856,0.95,0.82,0.0004999999999999997
1560,0.3634244501590729,0.4848567247390747,0.95,0.82,0.0004999999999999997
1561,0.36342406272888184,0.48489299416542053,0.95,0.82,0.0004999999999999997
1562,0.36342376470565796,0.48492905497550964,0.95,0.82,0.0004999999999999997
1563,0.36342325806617737,0.4849652349948883,0.95,0.82,0.0004999999999999997
1564,0.3634229600429535,0.48500120639801025,0.95,0.82,0.0004999999999999997
1565,0.36342257261276245,0.48503729701042175,0.95,0.82,0.0004999999999999997
1566,0.3634222149848938,0.4850732386112213,0.95,0.82,0.0004999999999999997
1567,0.36342179775238037,0.48510903120040894,0.95,0.82,0.0004999999999999997
1568,0.36342141032218933,0.48514503240585327,0.95,0.82,0.0004999999999999997
1569,0.3634210228919983,0.48518094420433044,0.95,0.82,0.0004999999999999997
1570,0.36342066526412964,0.48521679639816284,0.95,0.82,0.0004999999999999997
1571,0.3634203374385834,0.4852524697780609,0.95,0.82,0.0004999999999999997
1572,0.3634199798107147,0.48528820276260376,0.95,0.82,0.0004999999999999997
1573,0.3634195029735565,0.4853239059448242,0.95,0.82,0.0004999999999999997
1574,0.36341917514801025,0.48535943031311035,0.95,0.82,0.0004999999999999997
1575,0.3634188175201416,0.4853951334953308,0.95,0.82,0.0004999999999999997
1576,0.36341843008995056,0.48543083667755127,0.95,0.82,0.0004999999999999997
1577,0.3634180724620819,0.48546645045280457,0.95,0.82,0.0004999999999999997
1578,0.36341771483421326,0.48550206422805786,0.95,0.82,0.0004999999999999997
1579,0.3634173274040222,0.4855377674102783,0.95,0.82,0.0004999999999999997
1580,0.36341696977615356,0.48557350039482117,0.95,0.82,0.0004999999999999997
1581,0.3634165823459625,0.4856090545654297,0.95,0.82,0.0004999999999999997
1582,0.36341622471809387,0.48564469814300537,0.95,0.82,0.0004999999999999997
1583,0.3634158670902252,0.48568034172058105,0.95,0.82,0.0004999999999999997
1584,0.3634154796600342,0.48571598529815674,0.95,0.82,0.0004999999999999997
1585,0.36341506242752075,0.4857516586780548,0.95,0.82,0.0004999999999999997
1586,0.3634147644042969,0.48578739166259766,0.95,0.82,0.0004999999999999997
1587,0.3634144067764282,0.4858230650424957,0.95,0.82,0.0004999999999999997
1588,0.36341407895088196,0.4858589172363281,0.95,0.82,0.0004999999999999997
1589,0.36341366171836853,0.4858948588371277,0.95,0.82,0.0004999999999999997
1590,0.3634133040904999,0.48593080043792725,0.95,0.82,0.0004999999999999997
1591,0.3634129762649536,0.48596683144569397,0.95,0.82,0.0004999999999999997
1592,0.3634125888347626,0.486003041267395,0.95,0.82,0.0004999999999999997
1593,0.36341220140457153,0.4860391616821289,0.95,0.82,0.0004999999999999997
1594,0.36341187357902527,0.4860755205154419,0.95,0.82,0.0004999999999999997
1595,0.3634115159511566,0.4861120581626892,0.95,0.82,0.0004999999999999997
1596,0.36341118812561035,0.48614856600761414,0.95,0.82,0.0004999999999999997
1597,0.36341071128845215,0.4861854314804077,0.95,0.82,0.0004999999999999997
1598,0.36341041326522827,0.48622238636016846,0.95,0.82,0.0004999999999999997
1599,0.3634101152420044,0.4862595498561859,0.95,0.82,0.0004999999999999997
1600,0.36340972781181335,0.48629701137542725,0.95,0.82,0.0004999999999999997
1601,0.3634093999862671,0.48633456230163574,0.95,0.82,0.0004999999999999997
1602,0.3634089231491089,0.4863724410533905,0.95,0.82,0.0004999999999999997
1603,0.363408625125885,0.48641058802604675,0.95,0.82,0.0004999999999999997
1604,0.36340826749801636,0.4864490032196045,0.95,0.82,0.0004999999999999997
1605,0.3634079098701477,0.4864877760410309,0.95,0.82,0.0004999999999999997
1606,0.36340755224227905,0.48652687668800354,0.95,0.82,0.0004999999999999997
1607,0.3634072542190552,0.4865661859512329,0.95,0.82,0.0004999999999999997
1608,0.36340683698654175,0.4866061806678772,0.95,0.82,0.0004999999999999997
1609,0.3634064793586731,0.4866463541984558,0.95,0.82,0.0004999999999999997
1610,0.36340609192848206,0.48668715357780457,0.95,0.82,0.0004999999999999997
1611,0.3634057641029358,0.4867284297943115,0.95,0.82,0.0004999999999999997
1612,0.36340534687042236,0.4867700934410095,0.95,0.82,0.0004999999999999997
1613,0.3634050786495209,0.48681262135505676,0.95,0.82,0.0004999999999999997
1614,0.36340466141700745,0.48685553669929504,0.95,0.82,0.0004999999999999997
1615,0.3634043037891388,0.48689910769462585,0.95,0.82,0.0004999999999999997
1616,0.36340397596359253,0.4869433343410492,0.95,0.82,0.0004999999999999997
1617,0.3634036183357239,0.48698848485946655,0.95,0.82,0.0004999999999999997
1618,0.3634033203125,0.48703402280807495,0.95,0.82,0.0004999999999999997
1619,0.36340293288230896,0.4870806634426117,0.95,0.82,0.0004999999999999997
1620,0.3634026050567627,0.4871280789375305,0.95,0.82,0.0004999999999999997
1621,0.36340224742889404,0.48717647790908813,0.95,0.82,0.0004999999999999997
1622,0.363401859998703,0.48722583055496216,0.95,0.82,0.0004999999999999997
1623,0.36340153217315674,0.48727649450302124,0.95,0.82,0.0004999999999999997
1624,0.3634011745452881,0.48732808232307434,0.95,0.82,0.0004999999999999997
1625,0.3634008467197418,0.48738086223602295,0.95,0.82,0.0004999999999999997
1626,0.36340048909187317,0.48743489384651184,0.95,0.82,0.0004999999999999997
1627,0.36340007185935974,0.48749038577079773,0.95,0.82,0.0004999999999999997
1628,0.36339980363845825,0.48754727840423584,0.95,0.82,0.0004999999999999997
1629,0.3633994162082672,0.4876057505607605,0.95,0.82,0.0004999999999999997
1630,0.36339908838272095,0.48766574263572693,0.95,0.82,0.0004999999999999997
1631,0.3633987307548523,0.4877275228500366,0.95,0.82,0.0004999999999999997
1632,0.36339831352233887,0.4877908229827881,0.95,0.82,0.0004999999999999997
1633,0.3633980453014374,0.48785600066185,0.95,0.82,0.0004999999999999997
1634,0.3633977174758911,0.48792335391044617,0.95,0.82,0.0004999999999999997
1635,0.36339741945266724,0.487992525100708,0.95,0.82,0.0004999999999999997
1636,0.3633970022201538,0.48806390166282654,0.95,0.82,0.0004999999999999997
1637,0.36339667439460754,0.4881373345851898,0.95,0.82,0.0004999999999999997
1638,0.3633963465690613,0.4882128834724426,0.95,0.82,0.0004999999999999997
1639,0.36339592933654785,0.4882912039756775,0.95,0.82,0.0004999999999999997
1640,0.36339566111564636,0.48837196826934814,0.95,0.82,0.0004999999999999997
1641,0.3633952736854553,0.48845526576042175,0.95,0.82,0.0004999999999999997
1642,0.36339497566223145,0.4885410666465759,0.95,0.82,0.0004999999999999997
1643,0.3633946478366852,0.4886293113231659,0.95,0.82,0.0004999999999999997
1644,0.36339429020881653,0.4887208044528961,0.95,0.82,0.0004999999999999997
1645,0.3633939027786255,0.4888150095939636,0.95,0.82,0.0004999999999999997
1646,0.363393634557724,0.48891228437423706,0.95,0.82,0.0004999999999999997
1647,0.36339327692985535,0.48901236057281494,0.95,0.82,0.0004999999999999997
1648,0.3633929491043091,0.4891151785850525,0.95,0.82,0.0004999999999999997
1649,0.36339259147644043,0.4892211854457855,0.95,0.82,0.0004999999999999997
1650,0.36339226365089417,0.4893302023410797,0.95,0.82,0.0004999999999999997
1651,0.3633918762207031,0.48944228887557983,0.95,0.82,0.0004999999999999997
1652,0.36339157819747925,0.48955702781677246,0.95,0.82,0.0004999999999999997
1653,0.3633911907672882,0.48967453837394714,0.95,0.82,0.0004999999999999997
1654,0.3633909225463867,0.48979490995407104,0.95,0.82,0.0004999999999999997
1655,0.36339056491851807,0.4899179935455322,0.95,0.82,0.0004999999999999997
1656,0.3633902370929718,0.4900437295436859,0.95,0.82,0.0004999999999999997
1657,0.36338987946510315,0.49017179012298584,0.95,0.82,0.0004999999999999997
1658,0.3633895516395569,0.49030184745788574,0.95,0.82,0.0004999999999999997
1659,0.36338919401168823,0.49043482542037964,0.95,0.82,0.0004999999999999997
1660,0.36338886618614197,0.49056991934776306,0.95,0.82,0.0004999999999999997
1661,0.36338862776756287,0.4907069802284241,0.95,0.82,0.0004999999999999997
1662,0.36338821053504944,0.490845650434494,0.95,0.82,0.0004999999999999997
1663,0.36338791251182556,0.4909849166870117,0.95,0.82,0.0004999999999999997
