,train loss,val loss,train acc,val acc,lr
0,0.6928907632827759,0.6720919609069824,0.69,0.64,0.001
1,0.6628846526145935,0.6558593511581421,0.69,0.64,0.001
2,0.6369631886482239,0.6451863646507263,0.69,0.64,0.001
3,0.6154491901397705,0.6434269547462463,0.69,0.64,0.001
4,0.6028185486793518,0.647301197052002,0.69,0.64,0.001
5,0.5986505746841431,0.6462257504463196,0.69,0.64,0.001
6,0.5918958187103271,0.6363785862922668,0.69,0.63,0.001
7,0.576981782913208,0.6217613220214844,0.68,0.61,0.001
8,0.5626766681671143,0.6124090552330017,0.71,0.67,0.001
9,0.5608675479888916,0.6065378785133362,0.79,0.7,0.001
10,0.5566914081573486,0.6014050841331482,0.78,0.7,0.001
11,0.5464358925819397,0.6010828614234924,0.78,0.69,0.001
12,0.5378856062889099,0.6054759621620178,0.79,0.66,0.001
13,0.5344605445861816,0.6086168885231018,0.77,0.64,0.001
14,0.5324143171310425,0.6031134128570557,0.76,0.67,0.001
15,0.5253114700317383,0.5920814275741577,0.79,0.7,0.001
16,0.5141762495040894,0.6013902425765991,0.81,0.68,0.001
17,0.522301435470581,0.5858321189880371,0.78,0.71,0.001
18,0.5085580945014954,0.5790835618972778,0.8,0.7,0.001
19,0.5049310922622681,0.5844493508338928,0.82,0.68,0.001
20,0.5035982728004456,0.5805712342262268,0.8,0.7,0.001
21,0.48832184076309204,0.5728182792663574,0.83,0.71,0.001
22,0.4714295566082001,0.5613659024238586,0.84,0.76,0.001
23,0.4652106761932373,0.5475264191627502,0.86,0.76,0.001
24,0.4569109082221985,0.5461371541023254,0.87,0.74,0.001
25,0.4471055567264557,0.5478541254997253,0.86,0.75,0.001
26,0.44546234607696533,0.5442966818809509,0.87,0.76,0.001
27,0.4464709162712097,0.5362642407417297,0.88,0.78,0.001
28,0.442867636680603,0.521233320236206,0.86,0.8,0.001
29,0.44255635142326355,0.5370131134986877,0.86,0.77,0.001
30,0.44261878728866577,0.5222992897033691,0.86,0.79,0.001
31,0.43824151158332825,0.5160306096076965,0.87,0.79,0.001
32,0.43750327825546265,0.5207595825195312,0.87,0.79,0.001
33,0.43251606822013855,0.5223533511161804,0.89,0.78,0.001
34,0.4327961206436157,0.5059158205986023,0.9,0.81,0.001
35,0.4313123822212219,0.5039488077163696,0.89,0.81,0.001
36,0.43075597286224365,0.5062569379806519,0.89,0.8,0.001
37,0.42984625697135925,0.5058903694152832,0.9,0.8,0.001
38,0.4264126718044281,0.5072942972183228,0.9,0.8,0.001
39,0.4263688027858734,0.5132657885551453,0.89,0.78,0.001
40,0.42565977573394775,0.5205471515655518,0.89,0.77,0.001
41,0.4247373640537262,0.5265665650367737,0.89,0.78,0.001
42,0.4250771701335907,0.5268359184265137,0.9,0.78,0.001
43,0.4242478311061859,0.5237770676612854,0.9,0.77,0.001
44,0.423504114151001,0.5178641676902771,0.9,0.79,0.001
45,0.4232606887817383,0.5161314010620117,0.9,0.78,0.001
46,0.4220101535320282,0.5198995471000671,0.9,0.77,0.001
47,0.42159783840179443,0.518904447555542,0.9,0.77,0.001
48,0.42095038294792175,0.5150291919708252,0.9,0.78,0.001
49,0.42034271359443665,0.5149219036102295,0.9,0.78,0.001
50,0.4200707972049713,0.5140016674995422,0.9,0.78,0.001
51,0.41927990317344666,0.5144423842430115,0.9,0.78,0.001
52,0.418979674577713,0.5158148407936096,0.9,0.78,0.001
53,0.4182490110397339,0.51600581407547,0.9,0.78,0.001
54,0.41793522238731384,0.5190684795379639,0.9,0.77,0.001
55,0.41736504435539246,0.5201160311698914,0.9,0.78,0.001
56,0.41692909598350525,0.5168201327323914,0.9,0.78,0.001
57,0.4167862832546234,0.5197797417640686,0.9,0.78,0.001
58,0.41615918278694153,0.5204578042030334,0.9,0.79,0.001
59,0.4163374602794647,0.5204445719718933,0.9,0.78,0.001
60,0.41677775979042053,0.5279611349105835,0.9,0.78,0.001
61,0.4162323772907257,0.5303224325180054,0.9,0.76,0.001
62,0.41580331325531006,0.5284051299095154,0.9,0.78,0.001
63,0.41520726680755615,0.5223889350891113,0.9,0.78,0.001
64,0.4153241813182831,0.51520174741745,0.9,0.78,0.001
65,0.41592511534690857,0.5237008929252625,0.9,0.78,0.001
66,0.4163261353969574,0.5252933502197266,0.9,0.78,0.001
67,0.41873684525489807,0.5249190330505371,0.9,0.79,0.001
68,0.4293500781059265,0.516473650932312,0.89,0.79,0.001
69,0.43064120411872864,0.5229480862617493,0.88,0.78,0.001
70,0.41459932923316956,0.5296405553817749,0.9,0.77,0.001
71,0.4216822385787964,0.5336713194847107,0.89,0.77,0.001
72,0.4150012731552124,0.5204058289527893,0.9,0.78,0.001
73,0.43133413791656494,0.5190967917442322,0.88,0.79,0.001
74,0.4164970815181732,0.5150295495986938,0.9,0.8,0.001
75,0.44478103518486023,0.5152620077133179,0.87,0.8,0.001
76,0.42012250423431396,0.5245124101638794,0.9,0.77,0.001
77,0.4284316897392273,0.5394484996795654,0.88,0.77,0.001
78,0.4164619445800781,0.5664798021316528,0.9,0.73,0.001
79,0.4579237401485443,0.5238301753997803,0.87,0.78,0.001
80,0.41526976227760315,0.5145288109779358,0.9,0.8,0.001
81,0.47245094180107117,0.5165660977363586,0.83,0.8,0.001
82,0.48689037561416626,0.5282043814659119,0.82,0.79,0.001
83,0.4665354788303375,0.5126374959945679,0.84,0.8,0.001
84,0.4330960810184479,0.5241348147392273,0.88,0.78,0.001
85,0.4178830087184906,0.5484744310379028,0.9,0.77,0.001
86,0.4638534486293793,0.5244442224502563,0.85,0.79,0.001
87,0.4558049440383911,0.5296204090118408,0.85,0.78,0.001
88,0.4306713342666626,0.5218645930290222,0.88,0.78,0.001
89,0.43483492732048035,0.5441949963569641,0.87,0.76,0.001
90,0.44656985998153687,0.5344110131263733,0.87,0.78,0.001
91,0.45592162013053894,0.5482631325721741,0.86,0.76,0.001
92,0.4993821680545807,0.5634039640426636,0.8,0.75,0.001
93,0.5084800124168396,0.5855307579040527,0.78,0.72,0.001
94,0.5036594867706299,0.5949733853340149,0.8,0.72,0.001
95,0.5055090188980103,0.587126612663269,0.79,0.72,0.001
96,0.4992203414440155,0.5670356154441833,0.8,0.75,0.001
97,0.4925926625728607,0.5596206784248352,0.8,0.74,0.001
98,0.4884704351425171,0.5543288588523865,0.8,0.74,0.001
99,0.4800611138343811,0.5564641356468201,0.83,0.75,0.001
100,0.47128722071647644,0.5625616908073425,0.84,0.75,0.001
101,0.4626332223415375,0.5481240153312683,0.84,0.75,0.001
102,0.44590646028518677,0.5499314069747925,0.87,0.74,0.001
103,0.4356551468372345,0.5319769382476807,0.86,0.76,0.001
104,0.4322932958602905,0.5268966555595398,0.88,0.77,0.001
105,0.43602094054222107,0.5230839252471924,0.88,0.78,0.001
106,0.436922162771225,0.5197432041168213,0.88,0.79,0.001
107,0.437761127948761,0.5180031061172485,0.88,0.79,0.001
108,0.43726298213005066,0.5202218294143677,0.88,0.79,0.001
109,0.4363156259059906,0.5224093794822693,0.88,0.78,0.001
110,0.4368484616279602,0.5202182531356812,0.88,0.78,0.001
111,0.43736135959625244,0.5105541944503784,0.88,0.81,0.001
112,0.43563908338546753,0.5048367977142334,0.88,0.81,0.001
113,0.43639805912971497,0.5050200819969177,0.88,0.81,0.001
114,0.43545395135879517,0.5089395642280579,0.88,0.81,0.001
115,0.43413159251213074,0.5115651488304138,0.88,0.8,0.001
116,0.4327978193759918,0.5133248567581177,0.88,0.8,0.001
117,0.430134117603302,0.5116108059883118,0.89,0.8,0.001
118,0.4293915033340454,0.5119067430496216,0.88,0.8,0.001
119,0.4272611141204834,0.5175281763076782,0.89,0.79,0.001
120,0.4249613583087921,0.5224302411079407,0.89,0.79,0.001
121,0.42774322628974915,0.5115009546279907,0.89,0.8,0.001
122,0.42910629510879517,0.5103744268417358,0.89,0.81,0.001
123,0.43235161900520325,0.5165296792984009,0.88,0.79,0.001
124,0.42756912112236023,0.5311923027038574,0.89,0.78,0.001
125,0.43110230565071106,0.5195724964141846,0.88,0.79,0.001
126,0.42716526985168457,0.516870379447937,0.89,0.8,0.001
127,0.4294981360435486,0.5193228125572205,0.88,0.8,0.001
128,0.42833468317985535,0.5246096849441528,0.89,0.79,0.001
129,0.42608773708343506,0.5333498120307922,0.89,0.76,0.001
130,0.42642444372177124,0.536224901676178,0.89,0.76,0.001
131,0.42784130573272705,0.5337538123130798,0.89,0.76,0.001
132,0.42689836025238037,0.5273095965385437,0.89,0.78,0.001
133,0.42574700713157654,0.5242432951927185,0.89,0.78,0.001
134,0.4257128834724426,0.5245609283447266,0.89,0.79,0.001
135,0.42647066712379456,0.5252482295036316,0.89,0.79,0.001
136,0.4262751042842865,0.5225437879562378,0.89,0.78,0.001
137,0.4253203272819519,0.520560622215271,0.89,0.79,0.001
138,0.4250694513320923,0.5204397439956665,0.89,0.79,0.001
139,0.4253176152706146,0.5194892287254333,0.89,0.79,0.001
140,0.425465852022171,0.5183181762695312,0.89,0.79,0.001
141,0.4251372814178467,0.517296314239502,0.89,0.79,0.001
142,0.4246952533721924,0.5162720680236816,0.89,0.79,0.001
143,0.4245694875717163,0.5162031650543213,0.89,0.79,0.001
144,0.4247778654098511,0.5156401991844177,0.89,0.79,0.001
145,0.42479655146598816,0.5149518847465515,0.89,0.79,0.001
146,0.42444783449172974,0.5155280828475952,0.89,0.79,0.001
147,0.4242566227912903,0.5154110193252563,0.89,0.79,0.001
148,0.42430123686790466,0.5148661732673645,0.89,0.79,0.001
149,0.42437484860420227,0.5143621563911438,0.89,0.79,0.001
150,0.42427417635917664,0.5140213966369629,0.89,0.79,0.001
151,0.42406967282295227,0.5137113928794861,0.89,0.79,0.001
152,0.42392051219940186,0.5134866237640381,0.89,0.79,0.001
153,0.42380836606025696,0.5138902068138123,0.89,0.79,0.001
154,0.4231243133544922,0.5144383311271667,0.89,0.79,0.001
155,0.4168511629104614,0.5218476057052612,0.9,0.78,0.001
156,0.42117226123809814,0.5075789093971252,0.89,0.81,0.001
157,0.41832298040390015,0.5099567770957947,0.9,0.8,0.001
158,0.4210001230239868,0.5058870911598206,0.89,0.81,0.001
159,0.4164985418319702,0.512790858745575,0.9,0.8,0.001
160,0.41732990741729736,0.5226945281028748,0.9,0.78,0.001
161,0.42407286167144775,0.5291135311126709,0.89,0.78,0.001
162,0.42626118659973145,0.5276705026626587,0.89,0.78,0.001
163,0.42525750398635864,0.5126360058784485,0.89,0.8,0.001
164,0.42523136734962463,0.5097642540931702,0.89,0.81,0.001
165,0.4275111258029938,0.514497697353363,0.88,0.8,0.001
166,0.44540488719940186,0.5253711938858032,0.87,0.78,0.001
167,0.4284747242927551,0.5155742764472961,0.89,0.79,0.001
168,0.4199530780315399,0.5360924601554871,0.9,0.78,0.001
169,0.4631395637989044,0.5430300235748291,0.84,0.76,0.001
170,0.45550358295440674,0.5303601622581482,0.86,0.78,0.001
171,0.45901212096214294,0.5220780372619629,0.85,0.79,0.0007937005259840996
172,0.4605492651462555,0.5156207084655762,0.84,0.8,0.0007937005259840996
173,0.4362322986125946,0.5172388553619385,0.88,0.79,0.0007937005259840996
174,0.4149540662765503,0.5261627435684204,0.9,0.78,0.0007937005259840996
175,0.42431640625,0.5346094369888306,0.87,0.77,0.0007937005259840996
176,0.4503963887691498,0.5286669731140137,0.86,0.78,0.0007937005259840996
177,0.4270723760128021,0.5156455039978027,0.88,0.78,0.0007937005259840996
178,0.41691699624061584,0.5140327215194702,0.9,0.8,0.0007937005259840996
179,0.4252772629261017,0.5158489942550659,0.89,0.8,0.0007937005259840996
180,0.435964971780777,0.5193570852279663,0.89,0.79,0.0007937005259840996
181,0.430095374584198,0.5249709486961365,0.89,0.78,0.0007937005259840996
182,0.4370766878128052,0.5224464535713196,0.88,0.79,0.0007937005259840996
183,0.4343257546424866,0.5204882621765137,0.89,0.79,0.0007937005259840996
184,0.42786163091659546,0.516787588596344,0.89,0.8,0.0007937005259840996
185,0.4274602234363556,0.5147039890289307,0.89,0.79,0.0007937005259840996
186,0.4252004623413086,0.5139473676681519,0.89,0.79,0.0007937005259840996
187,0.4204476475715637,0.5176860690116882,0.9,0.8,0.0007937005259840996
188,0.4160064458847046,0.5181171298027039,0.9,0.79,0.0007937005259840996
189,0.4151337146759033,0.5146268010139465,0.9,0.79,0.0007937005259840996
190,0.41726362705230713,0.5160894989967346,0.9,0.8,0.0007937005259840996
191,0.41932427883148193,0.5218430161476135,0.9,0.78,0.0007937005259840996
192,0.4171135723590851,0.5309187173843384,0.9,0.78,0.0007937005259840996
193,0.41541823744773865,0.5348149538040161,0.9,0.77,0.0007937005259840996
194,0.41571560502052307,0.5334160923957825,0.9,0.77,0.0007937005259840996
195,0.418018102645874,0.5212712287902832,0.9,0.79,0.0007937005259840996
196,0.414262592792511,0.5095815062522888,0.9,0.79,0.0007937005259840996
197,0.4187076687812805,0.5047407150268555,0.9,0.81,0.0007937005259840996
198,0.42083102464675903,0.5118277072906494,0.89,0.79,0.0007937005259840996
199,0.4155730903148651,0.5190173387527466,0.9,0.79,0.0007937005259840996
200,0.4140737056732178,0.5225775241851807,0.9,0.78,0.0007937005259840996
201,0.4159698486328125,0.5216799378395081,0.9,0.78,0.0007937005259840996
202,0.41667690873146057,0.5162011981010437,0.9,0.79,0.0007937005259840996
203,0.41408607363700867,0.5104851126670837,0.9,0.8,0.0007937005259840996
204,0.4143359363079071,0.5053674578666687,0.9,0.8,0.0007937005259840996
205,0.4163379967212677,0.5050962567329407,0.9,0.8,0.0007937005259840996
206,0.41629278659820557,0.5098612308502197,0.9,0.8,0.0007937005259840996
207,0.4143836200237274,0.5154463648796082,0.9,0.79,0.0007937005259840996
208,0.4140017330646515,0.5186706185340881,0.9,0.79,0.0007937005259840996
209,0.4143402576446533,0.5185678005218506,0.9,0.79,0.0007937005259840996
210,0.4150228798389435,0.5180510878562927,0.9,0.79,0.0007937005259840996
211,0.415365070104599,0.5183666944503784,0.9,0.79,0.0007937005259840996
212,0.41488179564476013,0.5190069079399109,0.9,0.79,0.0007937005259840996
213,0.4143235683441162,0.5186039805412292,0.9,0.79,0.0007937005259840996
214,0.4140351414680481,0.5164849162101746,0.9,0.79,0.0007937005259840996
215,0.4140160381793976,0.5132842063903809,0.9,0.79,0.0007937005259840996
216,0.4142744541168213,0.5112960934638977,0.9,0.79,0.0007937005259840996
217,0.41456714272499084,0.5124227404594421,0.9,0.79,0.0007937005259840996
218,0.4144216477870941,0.5154728889465332,0.9,0.79,0.0007937005259840996
219,0.4140777289867401,0.518111526966095,0.9,0.79,0.0007937005259840996
220,0.4139036536216736,0.5195555686950684,0.9,0.79,0.0007937005259840996
221,0.4138881266117096,0.5201614499092102,0.9,0.79,0.0007937005259840996
222,0.41394564509391785,0.5203759670257568,0.9,0.79,0.0007937005259840996
223,0.4140147864818573,0.5205044746398926,0.9,0.79,0.0007937005259840996
224,0.41404515504837036,0.5206513404846191,0.9,0.79,0.0007937005259840996
225,0.4140150845050812,0.5207687616348267,0.9,0.79,0.0007937005259840996
226,0.41393589973449707,0.520757257938385,0.9,0.79,0.0007937005259840996
227,0.4138394296169281,0.5205098986625671,0.9,0.79,0.0007937005259840996
228,0.4137571454048157,0.520000696182251,0.9,0.79,0.0007937005259840996
229,0.4137047529220581,0.5192723274230957,0.9,0.79,0.0007937005259840996
230,0.41368621587753296,0.5184398293495178,0.9,0.79,0.0007937005259840996
231,0.41369715332984924,0.5177509188652039,0.9,0.79,0.0007937005259840996
232,0.41372039914131165,0.5174280405044556,0.9,0.79,0.0007937005259840996
233,0.41372981667518616,0.5175628066062927,0.9,0.79,0.0007937005259840996
234,0.413710355758667,0.5180708169937134,0.9,0.79,0.0007937005259840996
235,0.41366997361183167,0.5187378525733948,0.9,0.79,0.0007937005259840996
236,0.4136293828487396,0.5193974375724792,0.9,0.79,0.0007937005259840996
237,0.41360121965408325,0.5199504494667053,0.9,0.79,0.0007937005259840996
238,0.413587749004364,0.5203678607940674,0.9,0.79,0.0007937005259840996
239,0.41358482837677,0.5206671357154846,0.9,0.79,0.0007937005259840996
240,0.4135870635509491,0.5208585262298584,0.9,0.79,0.0007937005259840996
241,0.4135892391204834,0.5209532976150513,0.9,0.79,0.0007937005259840996
242,0.41358768939971924,0.5209612250328064,0.9,0.79,0.0007937005259840996
243,0.41358113288879395,0.5208877325057983,0.9,0.79,0.0007937005259840996
244,0.41356974840164185,0.5207417011260986,0.9,0.79,0.0007937005259840996
245,0.4135560095310211,0.5205297470092773,0.9,0.79,0.0007937005259840996
246,0.4135423004627228,0.5202682018280029,0.9,0.79,0.0007937005259840996
247,0.4135311245918274,0.5199756026268005,0.9,0.79,0.0007937005259840996
248,0.41352349519729614,0.5196801424026489,0.9,0.79,0.0007937005259840996
249,0.4135194718837738,0.5194097757339478,0.9,0.79,0.0007937005259840996
250,0.41351833939552307,0.5192002654075623,0.9,0.79,0.0007937005259840996
251,0.41351795196533203,0.519076406955719,0.9,0.79,0.0007937005259840996
252,0.41351643204689026,0.5190457701683044,0.9,0.79,0.0007937005259840996
253,0.4135130047798157,0.5190970301628113,0.9,0.79,0.0007937005259840996
254,0.4135075509548187,0.5192227363586426,0.9,0.79,0.0007937005259840996
255,0.41350114345550537,0.5193814039230347,0.9,0.79,0.0007937005259840996
256,0.4134947657585144,0.5195607542991638,0.9,0.79,0.0007937005259840996
257,0.41348952054977417,0.5197279453277588,0.9,0.79,0.0007937005259840996
258,0.4134857952594757,0.519874095916748,0.9,0.79,0.0007937005259840996
259,0.4134831726551056,0.5199884176254272,0.9,0.79,0.0007937005259840996
260,0.4134814143180847,0.5200608968734741,0.9,0.79,0.0007937005259840996
261,0.41347968578338623,0.5200947523117065,0.9,0.79,0.0007937005259840996
262,0.41347771883010864,0.5200871825218201,0.9,0.79,0.0007937005259840996
263,0.41347530484199524,0.5200417041778564,0.9,0.79,0.0007937005259840996
264,0.4134722948074341,0.5199605822563171,0.9,0.79,0.0007937005259840996
265,0.4134688973426819,0.5198503732681274,0.9,0.79,0.0007937005259840996
266,0.4134654700756073,0.5197277665138245,0.9,0.79,0.0007937005259840996
267,0.413462370634079,0.5195890069007874,0.9,0.79,0.0007937005259840996
268,0.41345953941345215,0.5194560885429382,0.9,0.79,0.0007937005259840996
269,0.4134574234485626,0.5193392038345337,0.9,0.79,0.0007937005259840996
270,0.41345539689064026,0.5192380547523499,0.9,0.79,0.0007937005259840996
271,0.4134536683559418,0.5191669464111328,0.9,0.79,0.0007937005259840996
272,0.4134519100189209,0.5191224813461304,0.9,0.79,0.0007937005259840996
273,0.41345006227493286,0.5191043615341187,0.9,0.79,0.0007937005259840996
274,0.41344791650772095,0.5191128253936768,0.9,0.79,0.0007937005259840996
275,0.41344574093818665,0.5191348791122437,0.9,0.79,0.0007937005259840996
276,0.4134434759616852,0.5191766023635864,0.9,0.79,0.0007937005259840996
277,0.41344138979911804,0.519219696521759,0.9,0.79,0.0007937005259840996
278,0.4134393334388733,0.5192642211914062,0.9,0.79,0.0007937005259840996
279,0.41343748569488525,0.5193012952804565,0.9,0.79,0.0007937005259840996
280,0.41343581676483154,0.5193284749984741,0.9,0.79,0.0007937005259840996
281,0.41343414783477783,0.5193424820899963,0.9,0.79,0.0007937005259840996
282,0.41343265771865845,0.5193366408348083,0.9,0.79,0.0007937005259840996
283,0.4134310185909271,0.5193178057670593,0.9,0.79,0.0007937005259840996
284,0.4134294390678406,0.5192872881889343,0.9,0.79,0.0007937005259840996
285,0.41342785954475403,0.5192379355430603,0.9,0.79,0.0007937005259840996
286,0.41342613101005554,0.519182562828064,0.9,0.79,0.0007937005259840996
287,0.4134244918823242,0.5191227197647095,0.9,0.79,0.0007937005259840996
288,0.4134228527545929,0.5190603137016296,0.9,0.79,0.0007937005259840996
289,0.4134213328361511,0.5189971327781677,0.9,0.79,0.0007937005259840996
290,0.4134199023246765,0.5189408659934998,0.9,0.79,0.0007937005259840996
291,0.4134185314178467,0.5188896656036377,0.9,0.79,0.0007937005259840996
292,0.41341713070869446,0.5188459157943726,0.9,0.79,0.0007937005259840996
293,0.413415789604187,0.518814206123352,0.9,0.79,0.0007937005259840996
294,0.4134143888950348,0.518791139125824,0.9,0.79,0.0007937005259840996
295,0.41341307759284973,0.5187786817550659,0.9,0.79,0.0007937005259840996
296,0.41341179609298706,0.5187702178955078,0.9,0.79,0.0007937005259840996
297,0.4134104251861572,0.5187621712684631,0.9,0.79,0.0007937005259840996
298,0.41340914368629456,0.5187625288963318,0.9,0.79,0.0007937005259840996
299,0.4134078919887543,0.5187614560127258,0.9,0.79,0.0007937005259840996
300,0.4134065508842468,0.5187602639198303,0.9,0.79,0.0007937005259840996
301,0.41340532898902893,0.51875901222229,0.9,0.79,0.0007937005259840996
302,0.4134041965007782,0.5187525749206543,0.9,0.79,0.0007937005259840996
303,0.41340306401252747,0.5187442302703857,0.9,0.79,0.0007937005259840996
304,0.41340187191963196,0.5187274813652039,0.9,0.79,0.0007937005259840996
305,0.4134007394313812,0.5187090635299683,0.9,0.79,0.0007937005259840996
306,0.41339966654777527,0.5186813473701477,0.9,0.79,0.0007937005259840996
307,0.4133985638618469,0.5186513066291809,0.9,0.79,0.0007937005259840996
308,0.4133974313735962,0.5186151266098022,0.9,0.79,0.0007937005259840996
309,0.41339629888534546,0.5185821056365967,0.9,0.79,0.0007937005259840996
310,0.41339531540870667,0.5185463428497314,0.9,0.79,0.0007937005259840996
311,0.4133942127227783,0.5185127854347229,0.9,0.79,0.0007937005259840996
312,0.41339316964149475,0.5184825658798218,0.9,0.79,0.0007937005259840996
313,0.4133920967578888,0.5184516906738281,0.9,0.79,0.0007937005259840996
314,0.41339123249053955,0.5184237360954285,0.9,0.79,0.0007937005259840996
315,0.41339024901390076,0.5183999538421631,0.9,0.79,0.0007937005259840996
316,0.4133892059326172,0.5183785557746887,0.9,0.79,0.0007937005259840996
317,0.41338834166526794,0.518362820148468,0.9,0.79,0.0007937005259840996
318,0.4133872985839844,0.5183421969413757,0.9,0.79,0.0007937005259840996
319,0.4133864939212799,0.5183268785476685,0.9,0.79,0.0007937005259840996
320,0.4133855104446411,0.518311083316803,0.9,0.79,0.0007937005259840996
321,0.4133845567703247,0.5182973742485046,0.9,0.79,0.0007937005259840996
322,0.4133836328983307,0.5182837843894958,0.9,0.79,0.0007937005259840996
323,0.41338276863098145,0.518271267414093,0.9,0.79,0.0007937005259840996
324,0.413381963968277,0.5182598233222961,0.9,0.79,0.0007937005259840996
325,0.41338104009628296,0.5182443857192993,0.9,0.79,0.0007937005259840996
326,0.4133801758289337,0.5182304382324219,0.9,0.79,0.0007937005259840996
327,0.41337940096855164,0.5182115435600281,0.9,0.79,0.0007937005259840996
328,0.4133785665035248,0.518190860748291,0.9,0.79,0.0007937005259840996
329,0.41337767243385315,0.5181725025177002,0.9,0.79,0.0007937005259840996
330,0.41337692737579346,0.5181506276130676,0.9,0.79,0.0007937005259840996
331,0.413376122713089,0.5181294083595276,0.9,0.79,0.0007937005259840996
332,0.4133753478527069,0.5181084275245667,0.9,0.79,0.0007937005259840996
333,0.4133746325969696,0.5180857181549072,0.9,0.79,0.0007937005259840996
334,0.41337376832962036,0.5180660486221313,0.9,0.79,0.0007937005259840996
335,0.41337302327156067,0.5180438756942749,0.9,0.79,0.0007937005259840996
336,0.413372278213501,0.5180216431617737,0.9,0.79,0.0007937005259840996
337,0.4133715331554413,0.5180011987686157,0.9,0.79,0.0007937005259840996
338,0.4133707880973816,0.5179808139801025,0.9,0.79,0.0007937005259840996
339,0.4133700430393219,0.5179597735404968,0.9,0.79,0.0007937005259840996
340,0.413369357585907,0.517940878868103,0.9,0.79,0.0007937005259840996
341,0.4133685827255249,0.5179229378700256,0.9,0.79,0.0007937005259840996
342,0.4133679270744324,0.5179054737091064,0.9,0.79,0.0007937005259840996
343,0.41336724162101746,0.5178902745246887,0.9,0.79,0.0007937005259840996
344,0.4133665859699249,0.5178741216659546,0.9,0.79,0.0007937005259840996
345,0.4133658707141876,0.517859697341919,0.9,0.79,0.0007937005259840996
346,0.4133651852607727,0.5178463459014893,0.9,0.79,0.0007937005259840996
347,0.41336458921432495,0.5178319215774536,0.9,0.79,0.0007937005259840996
348,0.4133639633655548,0.5178138613700867,0.9,0.79,0.0007937005259840996
349,0.4133632779121399,0.5177990794181824,0.9,0.79,0.0007937005259840996
350,0.41336265206336975,0.5177841186523438,0.9,0.79,0.0007937005259840996
351,0.4133619964122772,0.5177691578865051,0.9,0.79,0.0007937005259840996
352,0.4133613705635071,0.5177536606788635,0.9,0.79,0.0007937005259840996
353,0.41336071491241455,0.5177372694015503,0.9,0.79,0.0007937005259840996
354,0.4133601486682892,0.5177205204963684,0.9,0.79,0.0007937005259840996
355,0.4133596122264862,0.5177043676376343,0.9,0.79,0.0007937005259840996
356,0.4133589565753937,0.5176876187324524,0.9,0.79,0.0007937005259840996
357,0.4133583903312683,0.5176711082458496,0.9,0.79,0.0007937005259840996
358,0.41335782408714294,0.5176513195037842,0.9,0.79,0.0007937005259840996
359,0.4133571982383728,0.5176297426223755,0.9,0.79,0.0007937005259840996
360,0.41335663199424744,0.5176102519035339,0.9,0.79,0.0007937005259840996
361,0.41335609555244446,0.5175960659980774,0.9,0.79,0.0007937005259840996
362,0.41335543990135193,0.5175783634185791,0.9,0.79,0.0007937005259840996
363,0.41335487365722656,0.5175626873970032,0.9,0.79,0.0007937005259840996
364,0.4133544862270355,0.5175483822822571,0.9,0.79,0.0007937005259840996
365,0.413353830575943,0.5175338983535767,0.9,0.79,0.0007937005259840996
366,0.4133533537387848,0.5175179839134216,0.9,0.79,0.0007937005259840996
367,0.4133527874946594,0.5175044536590576,0.9,0.79,0.0007937005259840996
368,0.41335219144821167,0.5174922943115234,0.9,0.79,0.0007937005259840996
369,0.41335174441337585,0.5174810290336609,0.9,0.79,0.0007937005259840996
370,0.41335123777389526,0.5174699425697327,0.9,0.79,0.0007937005259840996
371,0.4133506715297699,0.5174561142921448,0.9,0.79,0.0007937005259840996
372,0.4133501946926117,0.5174432992935181,0.9,0.79,0.0007937005259840996
373,0.4133497476577759,0.5174292922019958,0.9,0.79,0.0007937005259840996
374,0.4133492410182953,0.5174123644828796,0.9,0.79,0.0007937005259840996
375,0.4133487343788147,0.5173969864845276,0.9,0.79,0.0007937005259840996
376,0.4133481979370117,0.5173825025558472,0.9,0.79,0.0007937005259840996
377,0.4133477509021759,0.5173655152320862,0.9,0.79,0.0007937005259840996
378,0.4133472442626953,0.5173496007919312,0.9,0.79,0.0007937005259840996
379,0.4133467972278595,0.5173356533050537,0.9,0.79,0.0007937005259840996
380,0.4133462607860565,0.517320990562439,0.9,0.79,0.0007937005259840996
381,0.4133457541465759,0.5173055529594421,0.9,0.79,0.0007937005259840996
382,0.4133453667163849,0.5172969698905945,0.9,0.79,0.0007937005259840996
383,0.4133448898792267,0.517280638217926,0.9,0.79,0.0007937005259840996
384,0.4133443832397461,0.5172705054283142,0.9,0.79,0.0007937005259840996
385,0.41334399580955505,0.5172575116157532,0.9,0.79,0.0007937005259840996
386,0.4133434593677521,0.5172460079193115,0.9,0.79,0.0007937005259840996
387,0.41334304213523865,0.5172348618507385,0.9,0.79,0.0007937005259840996
388,0.4133427143096924,0.5172221660614014,0.9,0.79,0.0007937005259840996
389,0.4133422076702118,0.5172110199928284,0.9,0.79,0.0007937005259840996
390,0.41334182024002075,0.5171995759010315,0.9,0.79,0.0007937005259840996
391,0.4133414030075073,0.5171856880187988,0.9,0.79,0.0007937005259840996
392,0.4133409857749939,0.517171323299408,0.9,0.79,0.0007937005259840996
393,0.4133405387401581,0.5171595215797424,0.9,0.79,0.0007937005259840996
394,0.41334015130996704,0.517146646976471,0.9,0.79,0.0007937005259840996
395,0.4133397042751312,0.5171356201171875,0.9,0.79,0.0007937005259840996
396,0.4133392572402954,0.5171224474906921,0.9,0.79,0.0007937005259840996
397,0.41333892941474915,0.5171069502830505,0.9,0.79,0.0007937005259840996
398,0.4133385121822357,0.5170955061912537,0.9,0.79,0.0007937005259840996
399,0.4133380949497223,0.5170847177505493,0.9,0.79,0.0007937005259840996
400,0.41333773732185364,0.5170716643333435,0.9,0.79,0.0007937005259840996
401,0.4133373200893402,0.517061173915863,0.9,0.79,0.0007937005259840996
402,0.41333693265914917,0.5170519948005676,0.9,0.79,0.0007937005259840996
403,0.41333651542663574,0.5170384049415588,0.9,0.79,0.0007937005259840996
404,0.4133361876010895,0.5170278549194336,0.9,0.79,0.0007937005259840996
405,0.41333577036857605,0.5170168876647949,0.9,0.79,0.0007937005259840996
406,0.4133354127407074,0.5170043706893921,0.9,0.79,0.0007937005259840996
407,0.4133349657058716,0.5169935822486877,0.9,0.79,0.0007937005259840996
408,0.4133346676826477,0.5169824361801147,0.9,0.79,0.0007937005259840996
409,0.41333431005477905,0.5169699788093567,0.9,0.79,0.0007937005259840996
410,0.413333922624588,0.5169563889503479,0.9,0.79,0.0007937005259840996
411,0.4133334755897522,0.5169456005096436,0.9,0.79,0.0007937005259840996
412,0.4133331775665283,0.5169340372085571,0.9,0.79,0.0007937005259840996
413,0.4133327901363373,0.516922652721405,0.9,0.79,0.0007937005259840996
414,0.41333240270614624,0.5169116258621216,0.9,0.79,0.0007937005259840996
415,0.41333213448524475,0.5169000625610352,0.9,0.79,0.0007937005259840996
416,0.4133318066596985,0.516890287399292,0.9,0.79,0.0007937005259840996
417,0.41333144903182983,0.5168805718421936,0.9,0.79,0.0007937005259840996
418,0.41333112120628357,0.5168687105178833,0.9,0.79,0.0007937005259840996
419,0.4133307635784149,0.5168617367744446,0.9,0.79,0.0007937005259840996
420,0.4133303761482239,0.5168529152870178,0.9,0.79,0.0007937005259840996
421,0.413330078125,0.5168430209159851,0.9,0.79,0.0007937005259840996
422,0.41332969069480896,0.5168358087539673,0.9,0.8,0.0007937005259840996
423,0.41332942247390747,0.516822338104248,0.9,0.8,0.0007937005259840996
424,0.41332900524139404,0.5168126821517944,0.9,0.8,0.0007937005259840996
425,0.41332873702049255,0.5168008208274841,0.9,0.8,0.0007937005259840996
426,0.4133284091949463,0.5167896747589111,0.9,0.8,0.0007937005259840996
427,0.41332802176475525,0.5167772769927979,0.9,0.8,0.0007937005259840996
428,0.41332775354385376,0.516767144203186,0.9,0.8,0.0007937005259840996
429,0.4133274555206299,0.5167593955993652,0.9,0.8,0.0007937005259840996
430,0.4133271276950836,0.5167510509490967,0.9,0.8,0.0007937005259840996
431,0.41332682967185974,0.516741156578064,0.9,0.8,0.0007937005259840996
432,0.4133264422416687,0.5167325735092163,0.9,0.8,0.0007937005259840996
433,0.413326233625412,0.5167222619056702,0.9,0.8,0.0007937005259840996
434,0.4133259057998657,0.5167140960693359,0.9,0.8,0.0007937005259840996
435,0.41332557797431946,0.5167043805122375,0.9,0.8,0.0007937005259840996
436,0.4133252203464508,0.5166950821876526,0.9,0.8,0.0007937005259840996
437,0.4133250415325165,0.516685962677002,0.9,0.8,0.0007937005259840996
438,0.41332465410232544,0.5166776180267334,0.9,0.8,0.0007937005259840996
439,0.41332435607910156,0.5166692733764648,0.9,0.8,0.0007937005259840996
440,0.4133240878582001,0.5166592597961426,0.9,0.8,0.0007937005259840996
441,0.4133237600326538,0.5166528820991516,0.9,0.8,0.0007937005259840996
442,0.4133234918117523,0.5166468620300293,0.9,0.8,0.0007937005259840996
443,0.4133231043815613,0.5166357159614563,0.9,0.8,0.0007937005259840996
444,0.41332289576530457,0.5166260004043579,0.9,0.8,0.0007937005259840996
445,0.4133225977420807,0.5166174173355103,0.9,0.8,0.0007937005259840996
446,0.4133222997188568,0.5166056156158447,0.9,0.8,0.0007937005259840996
447,0.4133220911026001,0.5165949463844299,0.9,0.8,0.0007937005259840996
448,0.41332176327705383,0.5165858864784241,0.9,0.8,0.0007937005259840996
449,0.41332152485847473,0.5165753960609436,0.9,0.8,0.0007937005259840996
450,0.41332119703292847,0.516567051410675,0.9,0.8,0.0007937005259840996
451,0.41332095861434937,0.5165568590164185,0.9,0.8,0.0007937005259840996
452,0.4133206903934479,0.5165507197380066,0.9,0.8,0.0007937005259840996
453,0.413320392370224,0.5165435671806335,0.9,0.8,0.0007937005259840996
454,0.4133201539516449,0.5165300965309143,0.9,0.8,0.0007937005259840996
455,0.413319855928421,0.5165218710899353,0.9,0.8,0.0007937005259840996
456,0.4133196175098419,0.5165148973464966,0.9,0.8,0.0007937005259840996
457,0.41331931948661804,0.5165120363235474,0.9,0.8,0.0007937005259840996
458,0.41331905126571655,0.5165026783943176,0.9,0.8,0.0007937005259840996
459,0.4133187532424927,0.5164954662322998,0.9,0.8,0.0007937005259840996
460,0.4133185148239136,0.5164868831634521,0.9,0.8,0.0007937005259840996
461,0.4133182168006897,0.5164774060249329,0.9,0.8,0.0007937005259840996
462,0.41331806778907776,0.5164697766304016,0.9,0.8,0.0007937005259840996
463,0.4133177697658539,0.5164619088172913,0.9,0.8,0.0007937005259840996
464,0.41331756114959717,0.5164532661437988,0.9,0.8,0.0007937005259840996
465,0.4133172631263733,0.516445517539978,0.9,0.8,0.0007937005259840996
466,0.4133170247077942,0.516437828540802,0.9,0.8,0.0007937005259840996
467,0.4133167564868927,0.5164296627044678,0.9,0.8,0.0007937005259840996
468,0.413316547870636,0.51642245054245,0.9,0.8,0.0007937005259840996
469,0.4133162200450897,0.5164183974266052,0.9,0.8,0.0007937005259840996
470,0.4133160710334778,0.5164089798927307,0.9,0.8,0.0007937005259840996
471,0.41331568360328674,0.5164000988006592,0.9,0.8,0.0007937005259840996
472,0.4133155345916748,0.5163933634757996,0.9,0.8,0.0007937005259840996
473,0.4133152663707733,0.5163841247558594,0.9,0.8,0.0007937005259840996
474,0.4133150577545166,0.5163748264312744,0.9,0.8,0.0007937005259840996
475,0.4133148491382599,0.5163668990135193,0.9,0.8,0.0007937005259840996
476,0.4133146405220032,0.5163611173629761,0.9,0.8,0.0007937005259840996
477,0.4133143723011017,0.5163542032241821,0.9,0.8,0.0007937005259840996
478,0.4133141338825226,0.5163439512252808,0.9,0.8,0.0007937005259840996
479,0.4133138656616211,0.5163369178771973,0.9,0.8,0.0007937005259840996
480,0.4133135974407196,0.5163319110870361,0.9,0.8,0.0007937005259840996
481,0.41331347823143005,0.5163249373435974,0.9,0.8,0.0007937005259840996
482,0.4133131802082062,0.5163161754608154,0.9,0.8,0.0007937005259840996
483,0.41331300139427185,0.516308605670929,0.9,0.8,0.0007937005259840996
484,0.41331276297569275,0.5163030028343201,0.9,0.8,0.0007937005259840996
485,0.41331252455711365,0.5162936449050903,0.9,0.8,0.0007937005259840996
486,0.41331222653388977,0.5162873268127441,0.9,0.8,0.0007937005259840996
487,0.41331204771995544,0.516282856464386,0.9,0.8,0.0007937005259840996
488,0.41331180930137634,0.5162760615348816,0.9,0.8,0.0007937005259840996
489,0.4133116602897644,0.5162696242332458,0.9,0.8,0.0007937005259840996
490,0.4133114516735077,0.51626056432724,0.9,0.8,0.0007937005259840996
491,0.41331127285957336,0.5162532329559326,0.9,0.8,0.0007937005259840996
492,0.4133109748363495,0.5162457823753357,0.9,0.8,0.0007937005259840996
493,0.413310706615448,0.5162388682365417,0.9,0.8,0.0007937005259840996
494,0.4133104979991913,0.5162328481674194,0.9,0.8,0.0007937005259840996
495,0.4133104085922241,0.5162248015403748,0.9,0.8,0.0007937005259840996
496,0.413310170173645,0.516219437122345,0.9,0.8,0.0007937005259840996
497,0.41330987215042114,0.516213595867157,0.9,0.8,0.0007937005259840996
498,0.4133097529411316,0.5162043571472168,0.9,0.8,0.0007937005259840996
499,0.4133094847202301,0.5161974430084229,0.9,0.8,0.0007937005259840996
500,0.4133092761039734,0.5161890983581543,0.9,0.8,0.0007937005259840996
501,0.4133090674877167,0.5161837935447693,0.9,0.8,0.0007937005259840996
502,0.4133088290691376,0.5161800980567932,0.9,0.8,0.0007937005259840996
503,0.41330868005752563,0.5161753296852112,0.9,0.8,0.0007937005259840996
504,0.41330838203430176,0.5161699056625366,0.9,0.8,0.0007937005259840996
505,0.41330817341804504,0.5161632299423218,0.9,0.8,0.0007937005259840996
506,0.4133079946041107,0.5161585807800293,0.9,0.8,0.0007937005259840996
507,0.413307785987854,0.5161507725715637,0.9,0.8,0.0007937005259840996
508,0.4133076071739197,0.5161435604095459,0.9,0.8,0.0007937005259840996
509,0.41330742835998535,0.5161377191543579,0.9,0.8,0.0007937005259840996
510,0.41330718994140625,0.5161319971084595,0.9,0.8,0.0007937005259840996
511,0.4133070409297943,0.5161227583885193,0.9,0.8,0.0007937005259840996
512,0.4133068919181824,0.5161171555519104,0.9,0.8,0.0007937005259840996
513,0.4133065938949585,0.516109824180603,0.9,0.8,0.0007937005259840996
514,0.41330641508102417,0.516105592250824,0.9,0.8,0.0007937005259840996
515,0.41330620646476746,0.5160991549491882,0.9,0.8,0.0007937005259840996
516,0.41330599784851074,0.5160917043685913,0.9,0.8,0.0007937005259840996
517,0.41330578923225403,0.5160855054855347,0.9,0.8,0.0007937005259840996
518,0.4133056402206421,0.5160775184631348,0.9,0.8,0.0007937005259840996
519,0.4133054316043854,0.5160743594169617,0.9,0.8,0.0007937005259840996
520,0.41330528259277344,0.5160687565803528,0.9,0.8,0.0007937005259840996
521,0.4133051037788391,0.5160638093948364,0.9,0.8,0.0007937005259840996
522,0.4133049249649048,0.5160578489303589,0.9,0.8,0.0007937005259840996
523,0.41330471634864807,0.5160515308380127,0.9,0.8,0.0007937005259840996
524,0.41330447793006897,0.5160455107688904,0.9,0.8,0.0007937005259840996
525,0.4133043587207794,0.516039252281189,0.9,0.8,0.0007937005259840996
526,0.4133042097091675,0.5160333514213562,0.9,0.8,0.0007937005259840996
527,0.413303941488266,0.5160264372825623,0.9,0.8,0.0007937005259840996
528,0.4133037328720093,0.5160184502601624,0.9,0.8,0.0007937005259840996
529,0.4133036136627197,0.5160134434700012,0.9,0.8,0.0007937005259840996
530,0.4133033752441406,0.5160080790519714,0.9,0.8,0.0007937005259840996
531,0.4133032262325287,0.5160015225410461,0.9,0.8,0.0006299605249474364
532,0.41330307722091675,0.5159972906112671,0.9,0.8,0.0006299605249474364
533,0.4133029282093048,0.5159927010536194,0.9,0.8,0.0006299605249474364
534,0.41330277919769287,0.5159873962402344,0.9,0.8,0.0006299605249474364
535,0.41330260038375854,0.5159841179847717,0.9,0.8,0.0006299605249474364
536,0.4133024215698242,0.5159816145896912,0.9,0.8,0.0006299605249474364
537,0.41330230236053467,0.5159767866134644,0.9,0.8,0.0006299605249474364
538,0.4133021831512451,0.5159739851951599,0.9,0.8,0.0006299605249474364
539,0.41330206394195557,0.5159681439399719,0.9,0.8,0.0006299605249474364
540,0.41330191493034363,0.5159634351730347,0.9,0.8,0.0006299605249474364
541,0.41330182552337646,0.5159581899642944,0.9,0.8,0.0006299605249474364
542,0.41330164670944214,0.515953540802002,0.9,0.8,0.0006299605249474364
543,0.413301557302475,0.5159510970115662,0.9,0.8,0.0006299605249474364
544,0.4133013188838959,0.5159444212913513,0.9,0.8,0.0006299605249474364
545,0.4133012890815735,0.5159392952919006,0.9,0.8,0.0006299605249474364
546,0.4133010804653168,0.5159346461296082,0.9,0.8,0.0006299605249474364
547,0.41330093145370483,0.5159316658973694,0.9,0.8,0.0006299605249474364
548,0.4133008122444153,0.5159288644790649,0.9,0.8,0.0006299605249474364
549,0.41330066323280334,0.5159246921539307,0.9,0.8,0.0006299605249474364
550,0.41330060362815857,0.5159205198287964,0.9,0.8,0.0006299605249474364
551,0.41330039501190186,0.5159153938293457,0.9,0.8,0.0006299605249474364
552,0.41330021619796753,0.5159127116203308,0.9,0.8,0.0006299605249474364
553,0.413300096988678,0.5159069895744324,0.9,0.8,0.0006299605249474364
554,0.4132999777793884,0.5159041285514832,0.9,0.8,0.0006299605249474364
555,0.4132998585700989,0.5159001350402832,0.9,0.8,0.0006299605249474364
556,0.4132997393608093,0.5158953070640564,0.9,0.8,0.0006299605249474364
557,0.413299560546875,0.515891432762146,0.9,0.8,0.0006299605249474364
558,0.41329944133758545,0.5158869624137878,0.9,0.8,0.0006299605249474364
559,0.4132993221282959,0.5158825516700745,0.9,0.8,0.0006299605249474364
560,0.41329917311668396,0.5158806443214417,0.9,0.8,0.0006299605249474364
561,0.4132990539073944,0.5158776640892029,0.9,0.8,0.0006299605249474364
562,0.41329896450042725,0.5158739686012268,0.9,0.8,0.0006299605249474364
563,0.4132987856864929,0.5158690810203552,0.9,0.8,0.0006299605249474364
564,0.41329872608184814,0.5158642530441284,0.9,0.8,0.0006299605249474364
565,0.41329851746559143,0.5158620476722717,0.9,0.8,0.0006299605249474364
566,0.4132983684539795,0.5158576965332031,0.9,0.8,0.0006299605249474364
567,0.4132983684539795,0.5158523321151733,0.9,0.8,0.0006299605249474364
568,0.413298100233078,0.5158474445343018,0.9,0.8,0.0006299605249474364
569,0.41329795122146606,0.5158431529998779,0.9,0.8,0.0006299605249474364
570,0.4132979214191437,0.5158397555351257,0.9,0.8,0.0006299605249474364
571,0.41329777240753174,0.5158330798149109,0.9,0.8,0.0006299605249474364
572,0.4132976830005646,0.5158278942108154,0.9,0.8,0.0006299605249474364
573,0.41329753398895264,0.5158246755599976,0.9,0.8,0.0006299605249474364
574,0.4132973551750183,0.5158212780952454,0.9,0.8,0.0006299605249474364
575,0.41329723596572876,0.5158187747001648,0.9,0.8,0.0006299605249474364
576,0.4132970869541168,0.5158135890960693,0.9,0.8,0.0006299605249474364
577,0.41329699754714966,0.5158077478408813,0.9,0.8,0.0006299605249474364
578,0.4132968783378601,0.5158048272132874,0.9,0.8,0.0006299605249474364
579,0.41329672932624817,0.5158019661903381,0.9,0.8,0.0006299605249474364
580,0.4132966101169586,0.515796959400177,0.9,0.8,0.0006299605249474364
581,0.41329652070999146,0.51579350233078,0.9,0.8,0.0006299605249474364
582,0.4132964015007019,0.5157902240753174,0.9,0.8,0.0006299605249474364
583,0.4132961928844452,0.5157870650291443,0.9,0.8,0.0006299605249474364
584,0.413296103477478,0.5157849788665771,0.9,0.8,0.0006299605249474364
585,0.4132959246635437,0.5157817602157593,0.9,0.8,0.0006299605249474364
586,0.4132958650588989,0.5157784819602966,0.9,0.8,0.0006299605249474364
587,0.413295716047287,0.5157724618911743,0.9,0.8,0.0006299605249474364
588,0.41329559683799744,0.5157681703567505,0.9,0.8,0.0006299605249474364
589,0.41329556703567505,0.5157626271247864,0.9,0.8,0.0006299605249474364
590,0.41329535841941833,0.515758216381073,0.9,0.8,0.0006299605249474364
591,0.4132952392101288,0.5157543420791626,0.9,0.8,0.0006299605249474364
592,0.4132951498031616,0.5157514810562134,0.9,0.8,0.0006299605249474364
593,0.4132949709892273,0.5157474279403687,0.9,0.8,0.0006299605249474364
594,0.41329488158226013,0.5157451033592224,0.9,0.8,0.0006299605249474364
595,0.4132947623729706,0.5157426595687866,0.9,0.8,0.0006299605249474364
596,0.41329464316368103,0.5157386064529419,0.9,0.8,0.0006299605249474364
597,0.4132944941520691,0.5157351493835449,0.9,0.8,0.0006299605249474364
598,0.41329434514045715,0.5157339572906494,0.9,0.8,0.0006299605249474364
599,0.4132942855358124,0.5157302618026733,0.9,0.8,0.0006299605249474364
600,0.41329413652420044,0.5157260298728943,0.9,0.8,0.0006299605249474364
601,0.4132939577102661,0.5157219171524048,0.9,0.8,0.0006299605249474364
602,0.4132939279079437,0.5157154202461243,0.9,0.8,0.0006299605249474364
603,0.4132937490940094,0.5157119035720825,0.9,0.8,0.0006299605249474364
604,0.4132935702800751,0.5157079100608826,0.9,0.8,0.0006299605249474364
605,0.4132934808731079,0.5157049894332886,0.9,0.8,0.0006299605249474364
606,0.41329333186149597,0.515702486038208,0.9,0.8,0.0006299605249474364
607,0.4132932424545288,0.5156979560852051,0.9,0.8,0.0006299605249474364
608,0.41329315304756165,0.5156959295272827,0.9,0.8,0.0006299605249474364
609,0.4132930338382721,0.5156939029693604,0.9,0.8,0.0006299605249474364
610,0.41329291462898254,0.5156901478767395,0.9,0.8,0.0006299605249474364
611,0.4132927656173706,0.5156871676445007,0.9,0.8,0.0006299605249474364
612,0.41329261660575867,0.5156843662261963,0.9,0.8,0.0006299605249474364
613,0.4132924973964691,0.5156804323196411,0.9,0.8,0.0006299605249474364
614,0.41329237818717957,0.5156765580177307,0.9,0.8,0.0006299605249474364
615,0.4132922291755676,0.5156766772270203,0.9,0.8,0.0006299605249474364
616,0.4132920801639557,0.5156717300415039,0.9,0.8,0.0006299605249474364
617,0.4132920801639557,0.5156679749488831,0.9,0.8,0.0006299605249474364
618,0.4132918417453766,0.5156631469726562,0.9,0.8,0.0006299605249474364
619,0.4132917821407318,0.5156581401824951,0.9,0.8,0.0006299605249474364
620,0.4132916331291199,0.5156526565551758,0.9,0.8,0.0006299605249474364
621,0.4132916331291199,0.5156484842300415,0.9,0.8,0.0006299605249474364
622,0.4132913649082184,0.5156437158584595,0.9,0.8,0.0006299605249474364
623,0.4132912755012512,0.5156397819519043,0.9,0.8,0.0006299605249474364
624,0.4132912755012512,0.5156374573707581,0.9,0.8,0.0006299605249474364
625,0.4132910668849945,0.515634298324585,0.9,0.8,0.0006299605249474364
626,0.4132908880710602,0.515631914138794,0.9,0.8,0.0006299605249474364
627,0.4132908582687378,0.5156312584877014,0.9,0.8,0.0006299605249474364
628,0.41329070925712585,0.5156278014183044,0.9,0.8,0.0006299605249474364
629,0.4132905602455139,0.5156250596046448,0.9,0.8,0.0006299605249474364
630,0.41329044103622437,0.5156219601631165,0.9,0.8,0.0006299605249474364
631,0.4132903218269348,0.5156175494194031,0.9,0.8,0.0006299605249474364
632,0.4132901430130005,0.5156146883964539,0.9,0.8,0.0004999999999999997
633,0.4132901430130005,0.5156117677688599,0.9,0.8,0.0004999999999999997
634,0.41329002380371094,0.515608549118042,0.9,0.8,0.0004999999999999997
635,0.413289874792099,0.5156057476997375,0.9,0.8,0.0004999999999999997
636,0.41328978538513184,0.515603244304657,0.9,0.8,0.0004999999999999997
637,0.4132896363735199,0.5156009793281555,0.9,0.8,0.0004999999999999997
638,0.4132896065711975,0.5155988931655884,0.9,0.8,0.0004999999999999997
639,0.41328948736190796,0.5155956149101257,0.9,0.8,0.0004999999999999997
640,0.4132894277572632,0.5155929327011108,0.9,0.8,0.0004999999999999997
641,0.41328924894332886,0.5155910849571228,0.9,0.8,0.0004999999999999997
642,0.4132891893386841,0.5155889987945557,0.9,0.8,0.0004999999999999997
643,0.4132890999317169,0.5155873894691467,0.9,0.8,0.0004999999999999997
644,0.41328904032707214,0.5155830979347229,0.9,0.8,0.0004999999999999997
645,0.4132888913154602,0.5155810713768005,0.9,0.8,0.0004999999999999997
646,0.41328880190849304,0.5155791640281677,0.9,0.8,0.0004999999999999997
647,0.4132887125015259,0.5155767202377319,0.9,0.8,0.0004999999999999997
648,0.4132886528968811,0.5155734419822693,0.9,0.8,0.0004999999999999997
649,0.41328850388526917,0.5155712366104126,0.9,0.8,0.0004999999999999997
650,0.4132884740829468,0.5155692100524902,0.9,0.8,0.0004999999999999997
651,0.4132883846759796,0.515566885471344,0.9,0.8,0.0004999999999999997
652,0.41328826546669006,0.5155643820762634,0.9,0.8,0.0004999999999999997
653,0.4132881164550781,0.5155616998672485,0.9,0.8,0.0004999999999999997
654,0.41328808665275574,0.5155612826347351,0.9,0.8,0.0004999999999999997
655,0.4132879376411438,0.5155577063560486,0.9,0.8,0.0004999999999999997
656,0.41328781843185425,0.5155556201934814,0.9,0.8,0.0004999999999999997
657,0.4132877290248871,0.5155538320541382,0.9,0.8,0.0004999999999999997
658,0.41328758001327515,0.5155520439147949,0.9,0.8,0.0004999999999999997
659,0.41328758001327515,0.5155486464500427,0.9,0.8,0.0004999999999999997
660,0.4132874608039856,0.5155462622642517,0.9,0.8,0.0004999999999999997
661,0.41328731179237366,0.5155432224273682,0.9,0.8,0.0004999999999999997
662,0.4132872521877289,0.5155412554740906,0.9,0.8,0.0004999999999999997
663,0.4132871925830841,0.5155380368232727,0.9,0.8,0.0004999999999999997
664,0.41328707337379456,0.515535295009613,0.9,0.8,0.0004999999999999997
665,0.4132869243621826,0.5155324935913086,0.9,0.8,0.0004999999999999997
666,0.41328680515289307,0.5155296921730042,0.9,0.8,0.0004999999999999997
667,0.4132867455482483,0.5155276656150818,0.9,0.8,0.0004999999999999997
668,0.41328662633895874,0.5155263543128967,0.9,0.8,0.0004999999999999997
669,0.4132864773273468,0.5155249238014221,0.9,0.8,0.0004999999999999997
670,0.4132864773273468,0.5155219435691833,0.9,0.8,0.0004999999999999997
671,0.41328638792037964,0.515521228313446,0.9,0.8,0.0004999999999999997
672,0.4132861793041229,0.5155196785926819,0.9,0.8,0.0004999999999999997
673,0.41328611969947815,0.5155174732208252,0.9,0.8,0.0004999999999999997
674,0.4132860600948334,0.5155148506164551,0.9,0.8,0.0004999999999999997
675,0.41328585147857666,0.5155121088027954,0.9,0.8,0.0004999999999999997
676,0.4132858216762543,0.5155099630355835,0.9,0.8,0.0004999999999999997
677,0.4132857024669647,0.5155084729194641,0.9,0.8,0.0004999999999999997
678,0.41328561305999756,0.5155043601989746,0.9,0.8,0.0004999999999999997
679,0.413285493850708,0.5154967904090881,0.9,0.8,0.0004999999999999997
680,0.413285493850708,0.5154949426651001,0.9,0.8,0.0004999999999999997
681,0.41328534483909607,0.5154922604560852,0.9,0.8,0.0004999999999999997
682,0.41328516602516174,0.515491247177124,0.9,0.8,0.0004999999999999997
683,0.41328513622283936,0.5154851078987122,0.9,0.8,0.0004999999999999997
684,0.4132849872112274,0.5154827237129211,0.9,0.8,0.0004999999999999997
685,0.4132848381996155,0.5154826641082764,0.9,0.8,0.0004999999999999997
686,0.4132848381996155,0.5154821276664734,0.9,0.8,0.0004999999999999997
687,0.41328468918800354,0.5154826641082764,0.9,0.8,0.0004999999999999997
688,0.413284569978714,0.5154815912246704,0.9,0.8,0.0004999999999999997
689,0.4132845401763916,0.5154809355735779,0.9,0.8,0.0004999999999999997
690,0.41328439116477966,0.5154783725738525,0.9,0.8,0.0004999999999999997
691,0.41328421235084534,0.5154769420623779,0.9,0.8,0.0004999999999999997
692,0.41328415274620056,0.5154755115509033,0.9,0.8,0.0004999999999999997
693,0.4132840037345886,0.515475332736969,0.9,0.8,0.0004999999999999997
694,0.4132840037345886,0.5154742002487183,0.9,0.8,0.0004999999999999997
695,0.4132838547229767,0.5154728889465332,0.9,0.8,0.0004999999999999997
696,0.41328370571136475,0.5154714584350586,0.9,0.8,0.0004999999999999997
697,0.4132835865020752,0.5154696106910706,0.9,0.8,0.0004999999999999997
698,0.41328346729278564,0.5154666304588318,0.9,0.8,0.0004999999999999997
699,0.4132833480834961,0.5154656171798706,0.9,0.8,0.0004999999999999997
700,0.41328325867652893,0.5154629349708557,0.9,0.8,0.0004999999999999997
701,0.41328322887420654,0.5154619216918945,0.9,0.8,0.0004999999999999997
702,0.4132830500602722,0.5154591202735901,0.9,0.8,0.0004999999999999997
703,0.41328293085098267,0.5154557228088379,0.9,0.8,0.0004999999999999997
704,0.41328275203704834,0.5154529809951782,0.9,0.8,0.0004999999999999997
705,0.41328275203704834,0.5154508948326111,0.9,0.8,0.0004999999999999997
706,0.4132825434207916,0.515448272228241,0.9,0.8,0.0004999999999999997
707,0.41328248381614685,0.5154446363449097,0.9,0.8,0.0004999999999999997
708,0.41328227519989014,0.5154419541358948,0.9,0.8,0.0004999999999999997
709,0.41328221559524536,0.5154387950897217,0.9,0.8,0.0004999999999999997
710,0.4132820963859558,0.5154359340667725,0.9,0.8,0.0004999999999999997
711,0.41328203678131104,0.5154340267181396,0.9,0.8,0.0004999999999999997
712,0.4132818877696991,0.515429675579071,0.9,0.8,0.0004999999999999997
713,0.41328179836273193,0.5154274106025696,0.9,0.8,0.0004999999999999997
714,0.4132816195487976,0.5154264569282532,0.9,0.8,0.0004999999999999997
715,0.41328155994415283,0.5154242515563965,0.9,0.8,0.0004999999999999997
716,0.4132813513278961,0.5154227614402771,0.9,0.8,0.0004999999999999997
717,0.41328132152557373,0.5154226422309875,0.9,0.8,0.0004999999999999997
718,0.41328108310699463,0.5154209733009338,0.9,0.8,0.0004999999999999997
719,0.41328108310699463,0.5154211521148682,0.9,0.8,0.0004999999999999997
720,0.4132809042930603,0.5154209733009338,0.9,0.8,0.0004999999999999997
721,0.41328078508377075,0.5154200196266174,0.9,0.8,0.0004999999999999997
722,0.4132806360721588,0.5154178738594055,0.9,0.8,0.0004999999999999997
723,0.41328057646751404,0.5154165029525757,0.9,0.8,0.0004999999999999997
724,0.4132803678512573,0.5154143571853638,0.9,0.8,0.0004999999999999997
725,0.41328030824661255,0.5154134631156921,0.9,0.8,0.0004999999999999997
726,0.41328009963035583,0.5154094099998474,0.9,0.8,0.0004999999999999997
727,0.4132799804210663,0.515407383441925,0.9,0.8,0.0004999999999999997
728,0.4132799208164215,0.5154049396514893,0.9,0.8,0.0004999999999999997
729,0.41327977180480957,0.5154019594192505,0.9,0.8,0.0004999999999999997
730,0.41327965259552,0.5154001116752625,0.9,0.8,0.0004999999999999997
731,0.4132795035839081,0.5153986215591431,0.9,0.8,0.0004999999999999997
732,0.41327938437461853,0.5153958797454834,0.9,0.8,0.0004999999999999997
733,0.4132791757583618,0.5153955817222595,0.9,0.8,0.0004999999999999997
734,0.41327908635139465,0.5153950452804565,0.9,0.8,0.0004999999999999997
735,0.4132789671421051,0.5153928995132446,0.9,0.8,0.0004999999999999997
736,0.41327884793281555,0.5153914093971252,0.9,0.8,0.0004999999999999997
737,0.4132786691188812,0.5153918862342834,0.9,0.8,0.0004999999999999997
738,0.41327857971191406,0.5153896808624268,0.9,0.8,0.0004999999999999997
739,0.4132784307003021,0.5153875946998596,0.9,0.8,0.0004999999999999997
740,0.4132782220840454,0.5153840780258179,0.9,0.8,0.0004999999999999997
741,0.41327807307243347,0.5153820514678955,0.9,0.8,0.0004999999999999997
742,0.4132779836654663,0.5153803825378418,0.9,0.8,0.0004999999999999997
743,0.413277804851532,0.5153802037239075,0.9,0.8,0.0004999999999999997
744,0.41327762603759766,0.5153785943984985,0.9,0.8,0.0004999999999999997
745,0.41327744722366333,0.515377402305603,0.9,0.8,0.0004999999999999997
746,0.41327735781669617,0.5153767466545105,0.9,0.8,0.0004999999999999997
747,0.4132772386074066,0.5153746604919434,0.9,0.8,0.0004999999999999997
748,0.4132770597934723,0.515373170375824,0.9,0.8,0.0004999999999999997
749,0.41327691078186035,0.5153723359107971,0.9,0.8,0.0004999999999999997
750,0.4132767617702484,0.5153710842132568,0.9,0.8,0.0004999999999999997
751,0.41327664256095886,0.5153692960739136,0.9,0.8,0.0004999999999999997
752,0.41327640414237976,0.5153672099113464,0.9,0.8,0.0004999999999999997
753,0.4132762849330902,0.5153664946556091,0.9,0.8,0.0004999999999999997
754,0.41327613592147827,0.5153652429580688,0.9,0.8,0.0004999999999999997
755,0.4132758677005768,0.515364408493042,0.9,0.8,0.0004999999999999997
756,0.41327568888664246,0.5153626799583435,0.9,0.8,0.0004999999999999997
757,0.4132755994796753,0.5153614282608032,0.9,0.8,0.0004999999999999997
758,0.4132753610610962,0.5153605937957764,0.9,0.8,0.0004999999999999997
759,0.41327521204948425,0.515358567237854,0.9,0.8,0.0004999999999999997
760,0.4132750630378723,0.5153579115867615,0.9,0.8,0.0004999999999999997
761,0.413274884223938,0.5153564214706421,0.9,0.8,0.0004999999999999997
762,0.41327473521232605,0.5153559446334839,0.9,0.8,0.0004999999999999997
763,0.41327449679374695,0.5153558850288391,0.9,0.8,0.0004999999999999997
764,0.41327425837516785,0.5153557658195496,0.9,0.8,0.0004999999999999997
765,0.4132741689682007,0.5153545141220093,0.9,0.8,0.0004999999999999997
766,0.4132739007472992,0.5153539180755615,0.9,0.8,0.0004999999999999997
767,0.41327378153800964,0.515353262424469,0.9,0.8,0.0004999999999999997
768,0.41327354311943054,0.5153522491455078,0.9,0.8,0.0004999999999999997
769,0.41327330470085144,0.5153509378433228,0.9,0.8,0.0004999999999999997
770,0.4132731556892395,0.5153497457504272,0.9,0.8,0.0004999999999999997
771,0.413272887468338,0.5153490900993347,0.9,0.8,0.0004999999999999997
772,0.4132727384567261,0.5153487920761108,0.9,0.8,0.0004999999999999997
773,0.413272500038147,0.5153489708900452,0.9,0.8,0.0004999999999999997
774,0.41327235102653503,0.5153451561927795,0.9,0.8,0.0004999999999999997
775,0.41327208280563354,0.5153406858444214,0.9,0.8,0.0004999999999999997
776,0.41327187418937683,0.5153408050537109,0.9,0.8,0.0004999999999999997
777,0.41327154636383057,0.5153404474258423,0.9,0.8,0.0004999999999999997
778,0.41327139735221863,0.5153391361236572,0.9,0.8,0.00039685026299204955
779,0.41327112913131714,0.5153377652168274,0.9,0.8,0.00039685026299204955
780,0.4132709205150604,0.5153363943099976,0.9,0.8,0.00039685026299204955
781,0.4132708013057709,0.515335738658905,0.9,0.8,0.00039685026299204955
782,0.4132705628871918,0.5153353810310364,0.9,0.8,0.00039685026299204955
783,0.41327041387557983,0.5153356194496155,0.9,0.8,0.00039685026299204955
784,0.41327017545700073,0.5153369307518005,0.9,0.8,0.00039685026299204955
785,0.413269966840744,0.515336811542511,0.9,0.8,0.00039685026299204955
786,0.41326987743377686,0.5153383016586304,0.9,0.8,0.00039685026299204955
787,0.413269579410553,0.5153388381004333,0.9,0.8,0.00039685026299204955
788,0.41326940059661865,0.5153389573097229,0.9,0.8,0.00039685026299204955
789,0.41326913237571716,0.5153398513793945,0.9,0.8,0.00039685026299204955
790,0.41326889395713806,0.5153396129608154,0.9,0.8,0.00039685026299204955
791,0.4132687449455261,0.5153393149375916,0.9,0.8,0.00039685026299204955
792,0.41326847672462463,0.5153389573097229,0.9,0.8,0.00039685026299204955
793,0.4132682681083679,0.5153396725654602,0.9,0.8,0.00039685026299204955
794,0.41326799988746643,0.5153393745422363,0.9,0.8,0.00039685026299204955
795,0.4132677912712097,0.5153395533561707,0.9,0.8,0.00039685026299204955
796,0.4132675230503082,0.5153391361236572,0.9,0.8,0.00039685026299204955
797,0.4132673144340515,0.5153390765190125,0.9,0.8,0.00039685026299204955
798,0.41326698660850525,0.5153397917747498,0.9,0.8,0.00039685026299204955
799,0.4132668375968933,0.5153393745422363,0.9,0.8,0.00039685026299204955
800,0.41326653957366943,0.5153399109840393,0.9,0.8,0.00039685026299204955
801,0.41326627135276794,0.5153387188911438,0.9,0.8,0.00039685026299204955
802,0.41326603293418884,0.5153417587280273,0.9,0.8,0.00039685026299204955
803,0.41326576471328735,0.5153419971466064,0.9,0.8,0.00039685026299204955
804,0.4132654070854187,0.515342652797699,0.9,0.8,0.00039685026299204955
805,0.4132651090621948,0.5153424739837646,0.9,0.8,0.00039685026299204955
806,0.41326484084129333,0.5153427720069885,0.9,0.8,0.00039685026299204955
807,0.4132646322250366,0.5153431296348572,0.9,0.8,0.00039685026299204955
808,0.41326436400413513,0.5153432488441467,0.9,0.8,0.00039685026299204955
809,0.4132639169692993,0.5153440237045288,0.9,0.8,0.00039685026299204955
810,0.41326361894607544,0.5153424739837646,0.9,0.8,0.00039685026299204955
811,0.41326332092285156,0.5153423547744751,0.9,0.8,0.00039685026299204955
812,0.4132629632949829,0.515343189239502,0.9,0.8,0.00039685026299204955
813,0.41326266527175903,0.5153438448905945,0.9,0.8,0.00039685026299204955
814,0.41326233744621277,0.5153458714485168,0.9,0.8,0.00039685026299204955
815,0.4132619798183441,0.5153501629829407,0.9,0.8,0.00039685026299204955
816,0.4132615625858307,0.5153502821922302,0.9,0.8,0.00039685026299204955
817,0.4132612943649292,0.5153528451919556,0.9,0.8,0.00039685026299204955
818,0.4132608473300934,0.5153552889823914,0.9,0.8,0.00039685026299204955
819,0.41326048970222473,0.5153563022613525,0.9,0.8,0.00039685026299204955
820,0.41326001286506653,0.5153566598892212,0.9,0.8,0.00039685026299204955
821,0.4132596254348755,0.5153587460517883,0.9,0.8,0.00039685026299204955
822,0.41325923800468445,0.5153625011444092,0.9,0.8,0.00039685026299204955
823,0.41325873136520386,0.5153645873069763,0.9,0.8,0.00039685026299204955
824,0.41325831413269043,0.5153664946556091,0.9,0.8,0.00039685026299204955
825,0.4132578670978546,0.5153688192367554,0.9,0.8,0.00039685026299204955
826,0.4132574796676636,0.5153720378875732,0.9,0.8,0.00039685026299204955
827,0.4132569432258606,0.5153751969337463,0.9,0.8,0.00039685026299204955
828,0.4132564663887024,0.5153787732124329,0.9,0.8,0.00039685026299204955
829,0.4132559597492218,0.5153817534446716,0.9,0.8,0.00039685026299204955
830,0.4132554233074188,0.515379786491394,0.9,0.8,0.00039685026299204955
831,0.41325491666793823,0.5153825283050537,0.9,0.8,0.00039685026299204955
832,0.41325435042381287,0.5153856873512268,0.9,0.8,0.00039685026299204955
833,0.4132537543773651,0.5153893232345581,0.9,0.8,0.00039685026299204955
834,0.41325321793556213,0.5153907537460327,0.9,0.8,0.00039685026299204955
835,0.41325247287750244,0.5153957605361938,0.9,0.8,0.00039685026299204955
836,0.4132520258426666,0.5154004096984863,0.9,0.8,0.00039685026299204955
837,0.4132513403892517,0.5154017806053162,0.9,0.8,0.00039685026299204955
838,0.4132506251335144,0.5154067873954773,0.9,0.8,0.00039685026299204955
839,0.4132499396800995,0.5154125690460205,0.9,0.8,0.00039685026299204955
840,0.41324925422668457,0.5154198408126831,0.9,0.8,0.00039685026299204955
841,0.41324856877326965,0.5154255628585815,0.9,0.8,0.00039685026299204955
842,0.4132477045059204,0.5154327750205994,0.9,0.8,0.00039685026299204955
843,0.41324692964553833,0.5154407024383545,0.9,0.8,0.00039685026299204955
844,0.4132460057735443,0.5154478549957275,0.9,0.8,0.00039685026299204955
845,0.41324517130851746,0.5154553055763245,0.9,0.8,0.00039685026299204955
846,0.4132442772388458,0.5154629349708557,0.9,0.8,0.00039685026299204955
847,0.4132433235645294,0.5154677629470825,0.9,0.8,0.00039685026299204955
848,0.413242369890213,0.5154764652252197,0.9,0.8,0.00039685026299204955
849,0.41324126720428467,0.5154854655265808,0.9,0.8,0.00039685026299204955
850,0.4132402837276459,0.5154938697814941,0.9,0.8,0.00039685026299204955
851,0.41323912143707275,0.5155016779899597,0.9,0.8,0.00039685026299204955
852,0.41323795914649963,0.5155130624771118,0.9,0.8,0.00039685026299204955
853,0.41323670744895935,0.515521764755249,0.9,0.8,0.00039685026299204955
854,0.41323551535606384,0.515532374382019,0.9,0.8,0.00039685026299204955
855,0.41323405504226685,0.5155430436134338,0.9,0.8,0.00039685026299204955
856,0.41323256492614746,0.5155559778213501,0.9,0.8,0.00039685026299204955
857,0.4132310748100281,0.5155712962150574,0.9,0.8,0.00039685026299204955
858,0.41322940587997437,0.5155843496322632,0.9,0.8,0.00039685026299204955
859,0.41322779655456543,0.5155962109565735,0.9,0.8,0.00039685026299204955
860,0.4132258892059326,0.5156119465827942,0.9,0.8,0.00039685026299204955
861,0.4132239818572998,0.5156271457672119,0.9,0.8,0.00039685026299204955
862,0.41322192549705505,0.5156484842300415,0.9,0.8,0.00039685026299204955
863,0.413219690322876,0.5156704187393188,0.9,0.8,0.00039685026299204955
864,0.41321736574172974,0.5156907439231873,0.9,0.8,0.00039685026299204955
865,0.41321492195129395,0.5157193541526794,0.9,0.8,0.00039685026299204955
866,0.4132121801376343,0.5157471895217896,0.9,0.8,0.00039685026299204955
867,0.4132092595100403,0.5157780647277832,0.9,0.8,0.00039685026299204955
868,0.4132061004638672,0.5158122181892395,0.9,0.8,0.00039685026299204955
869,0.4132026731967926,0.5158500075340271,0.9,0.8,0.00039685026299204955
870,0.41319897770881653,0.5158889293670654,0.9,0.8,0.00039685026299204955
871,0.41319480538368225,0.5159285664558411,0.9,0.8,0.00039685026299204955
872,0.4131903350353241,0.5159769058227539,0.9,0.8,0.00039685026299204955
873,0.4131854176521301,0.5160287022590637,0.9,0.8,0.00039685026299204955
874,0.41317999362945557,0.5160831809043884,0.9,0.8,0.00039685026299204955
875,0.4131738543510437,0.516150176525116,0.9,0.8,0.00039685026299204955
876,0.4131670296192169,0.516222357749939,0.9,0.8,0.00039685026299204955
877,0.4131593406200409,0.5163032412528992,0.9,0.8,0.00039685026299204955
878,0.4131506383419037,0.5163965225219727,0.9,0.8,0.00039685026299204955
879,0.4131407141685486,0.5165094137191772,0.9,0.8,0.00039685026299204955
880,0.4131292700767517,0.5166330933570862,0.9,0.8,0.00039685026299204955
881,0.4131160378456116,0.5167797803878784,0.9,0.8,0.00039685026299204955
882,0.4131004214286804,0.5169432163238525,0.9,0.8,0.00039685026299204955
883,0.413082093000412,0.5171499848365784,0.9,0.8,0.00039685026299204955
884,0.4130600392818451,0.5173948407173157,0.9,0.8,0.00039685026299204955
885,0.4130333364009857,0.5176875591278076,0.9,0.8,0.00039685026299204955
886,0.4130003750324249,0.5180579423904419,0.9,0.8,0.00039685026299204955
887,0.41295912861824036,0.5185226202011108,0.9,0.8,0.00039685026299204955
888,0.4129068851470947,0.5191284418106079,0.9,0.8,0.00039685026299204955
889,0.4128390848636627,0.5199000835418701,0.9,0.8,0.00039685026299204955
890,0.41274869441986084,0.5209104418754578,0.9,0.8,0.00039685026299204955
891,0.41262608766555786,0.522233247756958,0.9,0.79,0.00039685026299204955
892,0.4124540388584137,0.5238747596740723,0.9,0.79,0.00039685026299204955
893,0.41220471262931824,0.5257617831230164,0.9,0.79,0.00039685026299204955
894,0.4118286371231079,0.5276206731796265,0.9,0.77,0.00039685026299204955
895,0.41123756766319275,0.5290030837059021,0.9,0.77,0.00039685026299204955
896,0.41027721762657166,0.5292195677757263,0.9,0.77,0.00039685026299204955
897,0.40872782468795776,0.5270727276802063,0.9,0.78,0.00039685026299204955
898,0.40651950240135193,0.5232675671577454,0.9,0.79,0.00039685026299204955
899,0.40425965189933777,0.5210847854614258,0.92,0.79,0.00039685026299204955
900,0.402750700712204,0.5176413059234619,0.91,0.8,0.00039685026299204955
901,0.40190306305885315,0.5057274103164673,0.91,0.81,0.00039685026299204955
902,0.4016098082065582,0.5023196935653687,0.91,0.81,0.00039685026299204955
903,0.40806666016578674,0.5214658379554749,0.9,0.79,0.00039685026299204955
904,0.40369561314582825,0.5331650376319885,0.91,0.78,0.00039685026299204955
905,0.4065708816051483,0.534686803817749,0.91,0.78,0.00039685026299204955
906,0.40724778175354004,0.5228915810585022,0.91,0.79,0.00039685026299204955
907,0.40355727076530457,0.5053249001502991,0.91,0.81,0.00039685026299204955
908,0.40117818117141724,0.4959852993488312,0.91,0.82,0.00039685026299204955
909,0.4051336646080017,0.5037692785263062,0.91,0.81,0.00039685026299204955
910,0.40081390738487244,0.5090110898017883,0.92,0.8,0.00039685026299204955
911,0.400671124458313,0.5112787485122681,0.92,0.79,0.00039685026299204955
912,0.4025081694126129,0.5096487998962402,0.92,0.8,0.00039685026299204955
913,0.3998982906341553,0.506968080997467,0.92,0.8,0.00039685026299204955
914,0.39915385842323303,0.5039815902709961,0.92,0.81,0.00039685026299204955
915,0.39854466915130615,0.5061551928520203,0.92,0.8,0.00039685026299204955
916,0.39829427003860474,0.5129074454307556,0.92,0.79,0.00039685026299204955
917,0.39820244908332825,0.516548216342926,0.92,0.79,0.00039685026299204955
918,0.3981384038925171,0.5183733105659485,0.92,0.79,0.00039685026299204955
919,0.3981592655181885,0.5190163254737854,0.92,0.79,0.00039685026299204955
920,0.3976956605911255,0.518455445766449,0.92,0.79,0.00039685026299204955
921,0.3969160318374634,0.5179688930511475,0.92,0.79,0.00039685026299204955
922,0.3964926600456238,0.5190837979316711,0.92,0.78,0.00039685026299204955
923,0.39641621708869934,0.5211902856826782,0.92,0.78,0.00039685026299204955
924,0.39621663093566895,0.5223886966705322,0.92,0.78,0.00039685026299204955
925,0.3958953619003296,0.5238859057426453,0.92,0.77,0.00039685026299204955
926,0.39570629596710205,0.5251303315162659,0.92,0.77,0.00039685026299204955
927,0.39571037888526917,0.5249017477035522,0.92,0.79,0.00039685026299204955
928,0.3956819474697113,0.5246081352233887,0.92,0.78,0.00039685026299204955
929,0.39547598361968994,0.5245323777198792,0.92,0.77,0.00039685026299204955
930,0.3952367901802063,0.5244739651679993,0.92,0.77,0.00039685026299204955
931,0.395094096660614,0.5241143703460693,0.92,0.78,0.00039685026299204955
932,0.3949979841709137,0.523887038230896,0.92,0.79,0.00039685026299204955
933,0.39485689997673035,0.5240638256072998,0.92,0.79,0.00039685026299204955
934,0.3946838676929474,0.5245465636253357,0.92,0.78,0.00039685026299204955
935,0.3945483863353729,0.5249901413917542,0.92,0.77,0.00039685026299204955
936,0.39447271823883057,0.5248483419418335,0.92,0.77,0.00039685026299204955
937,0.3944298028945923,0.5239056944847107,0.92,0.78,0.00039685026299204955
938,0.3943825662136078,0.5223713517189026,0.92,0.78,0.00039685026299204955
939,0.39431601762771606,0.5208770036697388,0.92,0.79,0.00039685026299204955
940,0.3942406475543976,0.5198087096214294,0.92,0.79,0.00039685026299204955
941,0.39417269825935364,0.5191487669944763,0.92,0.79,0.00039685026299204955
942,0.3941152095794678,0.5186923146247864,0.92,0.79,0.00039685026299204955
943,0.39406317472457886,0.5181691646575928,0.92,0.79,0.00039685026299204955
944,0.3940119445323944,0.5172500014305115,0.92,0.79,0.00039685026299204955
945,0.39396366477012634,0.5156475305557251,0.92,0.79,0.00039685026299204955
946,0.39392197132110596,0.5135537981987,0.92,0.79,0.00039685026299204955
947,0.39388760924339294,0.5116132497787476,0.92,0.8,0.00039685026299204955
948,0.3938591778278351,0.5101828575134277,0.92,0.8,0.00039685026299204955
949,0.39383429288864136,0.5091827511787415,0.92,0.8,0.00039685026299204955
950,0.3938106894493103,0.5084608197212219,0.92,0.8,0.00039685026299204955
951,0.3937876522541046,0.5079438090324402,0.92,0.8,0.00039685026299204955
952,0.3937651515007019,0.5075485110282898,0.92,0.8,0.00039685026299204955
953,0.3937437832355499,0.5072576403617859,0.92,0.8,0.00039685026299204955
954,0.39372363686561584,0.5070916414260864,0.92,0.8,0.00039685026299204955
955,0.39370521903038025,0.5069839954376221,0.92,0.8,0.00039685026299204955
956,0.3936883211135864,0.5069612264633179,0.92,0.8,0.00039685026299204955
957,0.39367255568504333,0.5069653987884521,0.92,0.8,0.00039685026299204955
958,0.3936578333377838,0.5070481300354004,0.92,0.8,0.00039685026299204955
959,0.3936440646648407,0.5071460604667664,0.92,0.8,0.00039685026299204955
960,0.3936312198638916,0.5072641968727112,0.92,0.8,0.00039685026299204955
961,0.3936193883419037,0.5073727965354919,0.92,0.8,0.00039685026299204955
962,0.3936084806919098,0.5074687004089355,0.92,0.8,0.00039685026299204955
963,0.39359843730926514,0.5075100064277649,0.92,0.8,0.00039685026299204955
964,0.39358919858932495,0.5074833035469055,0.92,0.8,0.00039685026299204955
965,0.3935804069042206,0.5074011087417603,0.92,0.8,0.00039685026299204955
966,0.3935721218585968,0.5072429180145264,0.92,0.8,0.00039685026299204955
967,0.39356398582458496,0.5070314407348633,0.92,0.8,0.00039685026299204955
968,0.3935562074184418,0.5067988038063049,0.92,0.8,0.00039685026299204955
969,0.3935486972332001,0.5065297484397888,0.92,0.8,0.00039685026299204955
970,0.3935415744781494,0.506248414516449,0.92,0.8,0.00039685026299204955
971,0.39353474974632263,0.5059751868247986,0.92,0.8,0.00039685026299204955
972,0.39352837204933167,0.505706787109375,0.92,0.8,0.00039685026299204955
973,0.3935224115848541,0.5054587721824646,0.92,0.8,0.00039685026299204955
974,0.39351657032966614,0.5052388906478882,0.92,0.8,0.00039685026299204955
975,0.39351117610931396,0.5050384998321533,0.92,0.8,0.00039685026299204955
976,0.3935059607028961,0.5048549175262451,0.92,0.8,0.00039685026299204955
977,0.3935011625289917,0.5047118067741394,0.92,0.8,0.00039685026299204955
978,0.3934965431690216,0.504594624042511,0.92,0.8,0.00039685026299204955
979,0.39349204301834106,0.504497766494751,0.92,0.8,0.00039685026299204955
980,0.3934879004955292,0.5044118762016296,0.92,0.8,0.00039685026299204955
981,0.39348381757736206,0.5043483376502991,0.92,0.8,0.00039685026299204955
982,0.3934799134731293,0.5043005347251892,0.92,0.8,0.00039685026299204955
983,0.3934762179851532,0.504260778427124,0.92,0.8,0.00039685026299204955
984,0.3934727609157562,0.5042331218719482,0.92,0.8,0.00039685026299204955
985,0.39346936345100403,0.5042120218276978,0.92,0.8,0.00039685026299204955
986,0.39346590638160706,0.504197359085083,0.92,0.8,0.00039685026299204955
987,0.3934626281261444,0.504173994064331,0.92,0.8,0.00039685026299204955
988,0.3934594988822937,0.5041725635528564,0.92,0.8,0.00039685026299204955
989,0.39345645904541016,0.5041685700416565,0.92,0.8,0.00039685026299204955
990,0.3934536278247833,0.504163920879364,0.92,0.8,0.00039685026299204955
991,0.3934507369995117,0.5041658282279968,0.92,0.8,0.00039685026299204955
992,0.39344799518585205,0.5041752457618713,0.92,0.8,0.00039685026299204955
993,0.39344537258148193,0.5041742920875549,0.92,0.8,0.00039685026299204955
994,0.393442839384079,0.5041807293891907,0.92,0.8,0.00039685026299204955
995,0.3934403657913208,0.5041902661323547,0.92,0.8,0.00039685026299204955
996,0.39343804121017456,0.5042032599449158,0.92,0.8,0.00039685026299204955
997,0.3934357166290283,0.5042144656181335,0.92,0.8,0.00039685026299204955
998,0.39343342185020447,0.5042231678962708,0.92,0.8,0.00039685026299204955
999,0.39343127608299255,0.5042175054550171,0.92,0.8,0.00039685026299204955
1000,0.39342910051345825,0.5042212009429932,0.92,0.8,0.00039685026299204955
1001,0.3934269845485687,0.5042202472686768,0.92,0.8,0.00039685026299204955
1002,0.39342498779296875,0.50422602891922,0.92,0.8,0.00039685026299204955
1003,0.3934229910373688,0.5042267441749573,0.92,0.8,0.00039685026299204955
1004,0.3934212625026703,0.5042150020599365,0.92,0.8,0.00039685026299204955
1005,0.3934192955493927,0.5042087435722351,0.92,0.8,0.00039685026299204955
1006,0.39341750741004944,0.5041952729225159,0.92,0.8,0.00039685026299204955
1007,0.3934156894683838,0.5041869878768921,0.92,0.8,0.00039685026299204955
1008,0.39341408014297485,0.5041688680648804,0.92,0.8,0.00039685026299204955
1009,0.3934122920036316,0.5041559338569641,0.92,0.8,0.00039685026299204955
1010,0.39341071248054504,0.5041375160217285,0.92,0.8,0.00039685026299204955
1011,0.3934090733528137,0.5041096806526184,0.92,0.8,0.00039685026299204955
1012,0.39340755343437195,0.504088819026947,0.92,0.8,0.00039685026299204955
1013,0.3934060335159302,0.5040615797042847,0.92,0.8,0.00039685026299204955
1014,0.3934045135974884,0.5040442943572998,0.92,0.8,0.00039685026299204955
1015,0.3934030830860138,0.5040236115455627,0.92,0.8,0.00039685026299204955
1016,0.3934016525745392,0.5040050745010376,0.92,0.8,0.00039685026299204955
1017,0.3934001922607422,0.5039932131767273,0.92,0.8,0.00039685026299204955
1018,0.39339888095855713,0.5039779543876648,0.92,0.8,0.00039685026299204955
1019,0.39339762926101685,0.5039675235748291,0.92,0.8,0.00039685026299204955
1020,0.3933963477611542,0.5039575695991516,0.92,0.8,0.00039685026299204955
1021,0.39339497685432434,0.5039502382278442,0.92,0.8,0.00039685026299204955
1022,0.39339375495910645,0.5039435029029846,0.92,0.8,0.00039685026299204955
1023,0.39339253306388855,0.5039395093917847,0.92,0.8,0.00039685026299204955
1024,0.39339131116867065,0.5039381980895996,0.92,0.8,0.00039685026299204955
1025,0.39339011907577515,0.5039433836936951,0.92,0.8,0.00039685026299204955
1026,0.3933890163898468,0.5039434432983398,0.92,0.8,0.00039685026299204955
1027,0.3933878242969513,0.5039424300193787,0.92,0.8,0.00039685026299204955
1028,0.39338675141334534,0.5039405226707458,0.92,0.8,0.00039685026299204955
1029,0.393385648727417,0.5039482712745667,0.92,0.8,0.00039685026299204955
1030,0.39338457584381104,0.5039620399475098,0.92,0.8,0.00039685026299204955
1031,0.39338353276252747,0.5039680004119873,0.92,0.8,0.00039685026299204955
1032,0.3933824896812439,0.503983736038208,0.92,0.8,0.00039685026299204955
1033,0.3933814764022827,0.5039957165718079,0.92,0.8,0.00039685026299204955
1034,0.39338046312332153,0.5040079951286316,0.92,0.8,0.00039685026299204955
1035,0.39337944984436035,0.504020094871521,0.92,0.8,0.00039685026299204955
1036,0.39337849617004395,0.5040362477302551,0.92,0.8,0.00039685026299204955
1037,0.39337754249572754,0.5040555596351624,0.92,0.8,0.00039685026299204955
1038,0.3933766186237335,0.5040662288665771,0.92,0.8,0.00039685026299204955
1039,0.3933756947517395,0.5040797591209412,0.92,0.8,0.00039685026299204955
1040,0.39337483048439026,0.5040884613990784,0.92,0.8,0.00039685026299204955
1041,0.39337393641471863,0.5041009783744812,0.92,0.8,0.00039685026299204955
1042,0.3933730721473694,0.5040931701660156,0.92,0.8,0.00039685026299204955
1043,0.39337217807769775,0.5041038393974304,0.92,0.8,0.00039685026299204955
1044,0.3933712840080261,0.5041139125823975,0.92,0.8,0.00039685026299204955
1045,0.39337050914764404,0.5041301250457764,0.92,0.8,0.00039685026299204955
1046,0.3933696448802948,0.5041411519050598,0.92,0.8,0.00039685026299204955
1047,0.3933688700199127,0.5041534900665283,0.92,0.8,0.00039685026299204955
1048,0.39336806535720825,0.5041688680648804,0.92,0.8,0.00039685026299204955
1049,0.39336732029914856,0.5041862726211548,0.92,0.8,0.00039685026299204955
1050,0.3933665156364441,0.504189670085907,0.92,0.8,0.00039685026299204955
1051,0.393365740776062,0.5042014122009277,0.92,0.81,0.00039685026299204955
1052,0.3933650255203247,0.5042173862457275,0.92,0.81,0.00039685026299204955
1053,0.39336422085762024,0.504225492477417,0.92,0.81,0.00039685026299204955
1054,0.39336344599723816,0.5042365193367004,0.92,0.81,0.00039685026299204955
1055,0.39336276054382324,0.5042522549629211,0.92,0.81,0.00039685026299204955
1056,0.3933620750904083,0.5042735934257507,0.92,0.81,0.00039685026299204955
1057,0.3933613896369934,0.504290759563446,0.92,0.81,0.00039685026299204955
1058,0.3933607339859009,0.50428307056427,0.92,0.81,0.00039685026299204955
1059,0.3933599889278412,0.5042915940284729,0.92,0.81,0.00039685026299204955
1060,0.3933592736721039,0.5043050050735474,0.92,0.81,0.00039685026299204955
1061,0.39335867762565613,0.5043325424194336,0.92,0.81,0.00039685026299204955
1062,0.3933579623699188,0.5043483972549438,0.92,0.81,0.00039685026299204955
1063,0.3933573067188263,0.5043747425079346,0.92,0.81,0.00039685026299204955
1064,0.3933567404747009,0.5043922662734985,0.92,0.81,0.00039685026299204955
1065,0.39335617423057556,0.5044047236442566,0.92,0.81,0.00039685026299204955
1066,0.39335548877716064,0.5044317841529846,0.92,0.81,0.00039685026299204955
1067,0.3933548331260681,0.50445955991745,0.92,0.81,0.00039685026299204955
1068,0.39335426688194275,0.5044877529144287,0.92,0.81,0.00039685026299204955
1069,0.3933536112308502,0.5045211315155029,0.92,0.81,0.00039685026299204955
1070,0.39335301518440247,0.5045453310012817,0.92,0.81,0.00039685026299204955
1071,0.3933524787425995,0.5045766234397888,0.92,0.81,0.00039685026299204955
1072,0.3933519124984741,0.5046072602272034,0.92,0.81,0.00039685026299204955
1073,0.393351286649704,0.5046333074569702,0.92,0.81,0.00039685026299204955
1074,0.3933507800102234,0.504660964012146,0.92,0.81,0.00039685026299204955
1075,0.39335018396377563,0.5046879053115845,0.92,0.81,0.00039685026299204955
1076,0.39334964752197266,0.5047202110290527,0.92,0.81,0.00039685026299204955
1077,0.3933490812778473,0.5047609806060791,0.92,0.81,0.00039685026299204955
1078,0.3933485150337219,0.504789412021637,0.92,0.81,0.00039685026299204955
1079,0.39334800839424133,0.5048150420188904,0.92,0.81,0.00039685026299204955
1080,0.39334750175476074,0.5048456788063049,0.92,0.81,0.00039685026299204955
1081,0.39334696531295776,0.5048791170120239,0.92,0.81,0.00039685026299204955
1082,0.3933463990688324,0.5049041509628296,0.92,0.81,0.00039685026299204955
1083,0.3933458626270294,0.5049371123313904,0.92,0.81,0.00039685026299204955
1084,0.393345445394516,0.5049744248390198,0.92,0.81,0.00039685026299204955
1085,0.393344908952713,0.5050112009048462,0.92,0.81,0.00039685026299204955
1086,0.39334437251091003,0.505043089389801,0.92,0.8,0.00039685026299204955
1087,0.39334389567375183,0.505064070224762,0.92,0.8,0.00039685026299204955
1088,0.39334341883659363,0.5051050782203674,0.92,0.8,0.00039685026299204955
1089,0.3933429718017578,0.5051394701004028,0.92,0.8,0.00039685026299204955
1090,0.3933425545692444,0.5051774382591248,0.92,0.8,0.00039685026299204955
1091,0.3933420181274414,0.505200982093811,0.92,0.8,0.00039685026299204955
1092,0.3933415710926056,0.5052387118339539,0.92,0.8,0.00039685026299204955
1093,0.39334115386009216,0.5052797794342041,0.92,0.8,0.00039685026299204955
1094,0.3933406472206116,0.5053057670593262,0.92,0.8,0.00039685026299204955
1095,0.39334025979042053,0.5053296685218811,0.92,0.8,0.00039685026299204955
1096,0.39333975315093994,0.5053646564483643,0.92,0.8,0.00039685026299204955
1097,0.3933393955230713,0.5054022073745728,0.92,0.8,0.00039685026299204955
1098,0.3933388888835907,0.5054393410682678,0.92,0.8,0.00039685026299204955
1099,0.3933384418487549,0.5054720044136047,0.92,0.8,0.00039685026299204955
1100,0.39333808422088623,0.5054705739021301,0.92,0.8,0.00039685026299204955
1101,0.39333754777908325,0.5055022239685059,0.92,0.8,0.00039685026299204955
1102,0.393337219953537,0.5055404901504517,0.92,0.8,0.00039685026299204955
1103,0.39333680272102356,0.5055686831474304,0.92,0.8,0.00039685026299204955
1104,0.3933364152908325,0.5056111812591553,0.92,0.8,0.00039685026299204955
1105,0.39333590865135193,0.5056483745574951,0.92,0.8,0.00039685026299204955
1106,0.3933355212211609,0.5056906342506409,0.92,0.8,0.00039685026299204955
1107,0.39333516359329224,0.5057156682014465,0.92,0.8,0.00039685026299204955
1108,0.3933347463607788,0.5057623386383057,0.92,0.8,0.00039685026299204955
1109,0.39333435893058777,0.5058066844940186,0.92,0.8,0.00039685026299204955
1110,0.3933340013027191,0.5058411955833435,0.92,0.8,0.00039685026299204955
1111,0.3933336138725281,0.505882203578949,0.92,0.8,0.00039685026299204955
1112,0.3933332562446594,0.5059205889701843,0.92,0.8,0.00039685026299204955
1113,0.393332839012146,0.5059654712677002,0.92,0.8,0.00039685026299204955
1114,0.39333251118659973,0.5060113668441772,0.92,0.8,0.00039685026299204955
1115,0.3933321237564087,0.5060431957244873,0.92,0.8,0.00039685026299204955
1116,0.39333176612854004,0.5060791969299316,0.92,0.8,0.00039685026299204955
1117,0.3933314085006714,0.5061132907867432,0.92,0.8,0.00039685026299204955
1118,0.39333102107048035,0.5061385631561279,0.92,0.8,0.00039685026299204955
1119,0.3933306932449341,0.5061746835708618,0.92,0.8,0.00039685026299204955
1120,0.39333033561706543,0.5062116384506226,0.92,0.8,0.00039685026299204955
1121,0.39333000779151917,0.506241500377655,0.92,0.8,0.00039685026299204955
1122,0.3933296501636505,0.5062693357467651,0.92,0.8,0.00039685026299204955
1123,0.3933292627334595,0.5063021183013916,0.92,0.8,0.00039685026299204955
1124,0.3933289647102356,0.5063391327857971,0.92,0.8,0.00039685026299204955
1125,0.39332854747772217,0.5063731074333191,0.92,0.8,0.00039685026299204955
1126,0.3933282494544983,0.5064120292663574,0.92,0.8,0.00039685026299204955
1127,0.3933279514312744,0.50644850730896,0.92,0.8,0.00039685026299204955
1128,0.39332762360572815,0.5064738988876343,0.92,0.8,0.00039685026299204955
1129,0.3933273255825043,0.5065142512321472,0.92,0.8,0.00039685026299204955
1130,0.393326997756958,0.5065329074859619,0.92,0.8,0.00039685026299204955
1131,0.39332666993141174,0.5065721273422241,0.92,0.8,0.00039685026299204955
1132,0.39332637190818787,0.5066066384315491,0.92,0.8,0.00039685026299204955
1133,0.3933261036872864,0.5066399574279785,0.92,0.8,0.00039685026299204955
1134,0.39332571625709534,0.5066759586334229,0.92,0.8,0.00039685026299204955
1135,0.39332544803619385,0.5066969394683838,0.92,0.8,0.00039685026299204955
1136,0.3933251202106476,0.5067121982574463,0.92,0.8,0.00039685026299204955
1137,0.3933248519897461,0.5067470669746399,0.92,0.8,0.00039685026299204955
1138,0.3933245539665222,0.5067704916000366,0.92,0.8,0.00039685026299204955
1139,0.39332419633865356,0.5068089962005615,0.92,0.8,0.00039685026299204955
1140,0.3933238983154297,0.506842851638794,0.92,0.8,0.00039685026299204955
1141,0.39332371950149536,0.5068730711936951,0.92,0.8,0.00039685026299204955
1142,0.3933233916759491,0.506897509098053,0.92,0.8,0.00039685026299204955
1143,0.39332306385040283,0.5069315433502197,0.92,0.8,0.00039685026299204955
1144,0.39332279562950134,0.5069646835327148,0.92,0.8,0.00039685026299204955
1145,0.39332249760627747,0.5069904923439026,0.92,0.8,0.00039685026299204955
1146,0.393322229385376,0.5070119500160217,0.92,0.8,0.00039685026299204955
1147,0.3933219015598297,0.5070394277572632,0.92,0.8,0.00039685026299204955
1148,0.393321692943573,0.5070582032203674,0.92,0.8,0.00039685026299204955
1149,0.3933213949203491,0.5070863366127014,0.92,0.8,0.00039685026299204955
1150,0.39332112669944763,0.5071099400520325,0.92,0.8,0.00039685026299204955
1151,0.39332079887390137,0.5071364045143127,0.92,0.8,0.00039685026299204955
1152,0.39332059025764465,0.5071653723716736,0.92,0.8,0.00039685026299204955
1153,0.39332035183906555,0.5071908831596375,0.92,0.8,0.00039685026299204955
1154,0.3933200538158417,0.5072126984596252,0.92,0.8,0.00039685026299204955
1155,0.3933198153972626,0.5072352886199951,0.92,0.8,0.00039685026299204955
1156,0.3933195173740387,0.507253885269165,0.92,0.8,0.00039685026299204955
1157,0.39331936836242676,0.5072787404060364,0.92,0.8,0.00039685026299204955
1158,0.3933189809322357,0.5073040723800659,0.92,0.8,0.00039685026299204955
1159,0.39331871271133423,0.5073285102844238,0.92,0.8,0.00039685026299204955
1160,0.3933185338973999,0.5073554515838623,0.92,0.8,0.00039685026299204955
1161,0.3933182954788208,0.5073760747909546,0.92,0.8,0.00039685026299204955
1162,0.3933180272579193,0.5073986053466797,0.92,0.8,0.00039685026299204955
1163,0.3933177590370178,0.5074201822280884,0.92,0.8,0.00039685026299204955
1164,0.39331749081611633,0.5074427127838135,0.92,0.8,0.00039685026299204955
1165,0.393317312002182,0.507463812828064,0.92,0.8,0.00039685026299204955
1166,0.39331695437431335,0.5074840188026428,0.92,0.8,0.00039685026299204955
1167,0.39331677556037903,0.5074982643127441,0.92,0.8,0.00039685026299204955
1168,0.3933165371417999,0.5075181722640991,0.92,0.8,0.00039685026299204955
1169,0.393316388130188,0.5075293779373169,0.92,0.8,0.00039685026299204955
1170,0.3933160901069641,0.5075485110282898,0.92,0.8,0.00039685026299204955
1171,0.393315851688385,0.5075670480728149,0.92,0.8,0.00039685026299204955
1172,0.3933156728744507,0.5075787901878357,0.92,0.8,0.00039685026299204955
1173,0.3933154344558716,0.5075910091400146,0.92,0.8,0.00039685026299204955
1174,0.3933151662349701,0.5076106786727905,0.92,0.8,0.00039685026299204955
1175,0.3933149576187134,0.5076263546943665,0.92,0.8,0.00039685026299204955
1176,0.39331477880477905,0.5076451301574707,0.92,0.8,0.00039685026299204955
1177,0.39331451058387756,0.5076644420623779,0.92,0.8,0.00039685026299204955
1178,0.39331433176994324,0.5076788067817688,0.92,0.8,0.00039685026299204955
1179,0.39331406354904175,0.5076919198036194,0.92,0.8,0.00039685026299204955
1180,0.3933139443397522,0.5077106952667236,0.92,0.8,0.00039685026299204955
1181,0.3933136761188507,0.5077269077301025,0.92,0.8,0.00039685026299204955
1182,0.3933134973049164,0.5077487230300903,0.92,0.8,0.00039685026299204955
1183,0.3933131694793701,0.5077654719352722,0.92,0.8,0.00039685026299204955
1184,0.3933130204677582,0.5077781677246094,0.92,0.8,0.00039685026299204955
1185,0.39331281185150146,0.5077977180480957,0.92,0.8,0.00039685026299204955
1186,0.39331260323524475,0.5077892541885376,0.92,0.8,0.00031498026247371797
1187,0.3933124244213104,0.5077974200248718,0.92,0.8,0.00031498026247371797
1188,0.3933123052120209,0.5078096985816956,0.92,0.8,0.00031498026247371797
1189,0.3933120667934418,0.5078128576278687,0.92,0.8,0.00031498026247371797
1190,0.39331191778182983,0.5078243017196655,0.92,0.8,0.00031498026247371797
1191,0.3933117985725403,0.5078391432762146,0.92,0.8,0.00031498026247371797
1192,0.3933115303516388,0.5078489184379578,0.92,0.8,0.00031498026247371797
1193,0.39331141114234924,0.507860004901886,0.92,0.8,0.00031498026247371797
1194,0.3933113217353821,0.5078707337379456,0.92,0.8,0.00031498026247371797
1195,0.39331111311912537,0.5078817009925842,0.92,0.8,0.00031498026247371797
1196,0.3933109641075134,0.507893443107605,0.92,0.8,0.00031498026247371797
1197,0.39331090450286865,0.5079048871994019,0.92,0.8,0.00031498026247371797
1198,0.39331066608428955,0.5079160332679749,0.92,0.8,0.00031498026247371797
1199,0.39331045746803284,0.5079272985458374,0.92,0.8,0.00031498026247371797
1200,0.3933103680610657,0.5079340934753418,0.92,0.8,0.00031498026247371797
1201,0.39331018924713135,0.5079410076141357,0.92,0.8,0.00031498026247371797
1202,0.3933101296424866,0.50794917345047,0.92,0.8,0.00031498026247371797
1203,0.39330995082855225,0.5079569220542908,0.92,0.8,0.00031498026247371797
1204,0.3933098316192627,0.5079637765884399,0.92,0.8,0.00031498026247371797
1205,0.3933095932006836,0.5079681873321533,0.92,0.8,0.00031498026247371797
1206,0.39330947399139404,0.5079774856567383,0.92,0.8,0.00031498026247371797
1207,0.3933092951774597,0.5079836845397949,0.92,0.8,0.00031498026247371797
1208,0.39330917596817017,0.5079907774925232,0.92,0.8,0.00031498026247371797
1209,0.3933090269565582,0.5080021619796753,0.92,0.8,0.00031498026247371797
1210,0.3933089077472687,0.5080079436302185,0.92,0.8,0.00031498026247371797
1211,0.3933087885379791,0.5080162882804871,0.92,0.8,0.00031498026247371797
1212,0.3933086395263672,0.508022129535675,0.92,0.8,0.00031498026247371797
1213,0.39330846071243286,0.5080302953720093,0.92,0.8,0.00031498026247371797
1214,0.39330828189849854,0.5080413222312927,0.92,0.8,0.00031498026247371797
1215,0.39330819249153137,0.5080381631851196,0.92,0.8,0.00031498026247371797
1216,0.3933080732822418,0.5080463290214539,0.92,0.8,0.00031498026247371797
1217,0.3933079242706299,0.5080486536026001,0.92,0.8,0.00031498026247371797
1218,0.39330777525901794,0.5080523490905762,0.92,0.8,0.00031498026247371797
1219,0.3933076560497284,0.5080530047416687,0.92,0.8,0.00031498026247371797
1220,0.39330750703811646,0.5080565810203552,0.92,0.8,0.00031498026247371797
1221,0.39330732822418213,0.5080641508102417,0.92,0.8,0.00031498026247371797
1222,0.39330723881721497,0.5080669522285461,0.92,0.8,0.00031498026247371797
1223,0.3933071196079254,0.5080751776695251,0.92,0.8,0.00031498026247371797
1224,0.39330703020095825,0.5080834031105042,0.92,0.8,0.00031498026247371797
1225,0.3933068513870239,0.5080893039703369,0.92,0.8,0.00031498026247371797
1226,0.3933067321777344,0.5080952644348145,0.92,0.8,0.00031498026247371797
1227,0.3933066129684448,0.5080954432487488,0.92,0.8,0.00031498026247371797
1228,0.3933064639568329,0.5081003904342651,0.92,0.8,0.00031498026247371797
1229,0.39330631494522095,0.5081060528755188,0.92,0.8,0.00031498026247371797
1230,0.393306165933609,0.5081087350845337,0.92,0.8,0.00031498026247371797
1231,0.39330604672431946,0.5081120133399963,0.92,0.8,0.00031498026247371797
1232,0.3933059275150299,0.5081132650375366,0.92,0.8,0.00031498026247371797
1233,0.3933057487010956,0.5081207752227783,0.92,0.8,0.00031498026247371797
1234,0.3933056890964508,0.5081256031990051,0.92,0.8,0.00031498026247371797
1235,0.3933055102825165,0.5081313252449036,0.92,0.8,0.00031498026247371797
1236,0.3933054208755493,0.5081371068954468,0.92,0.8,0.00031498026247371797
1237,0.3933052718639374,0.508139967918396,0.92,0.8,0.00031498026247371797
1238,0.3933052122592926,0.5081446766853333,0.92,0.8,0.00031498026247371797
1239,0.3933049738407135,0.5081489682197571,0.92,0.8,0.00031498026247371797
1240,0.39330485463142395,0.5081512331962585,0.92,0.8,0.00031498026247371797
1241,0.3933047950267792,0.5081577301025391,0.92,0.8,0.00031498026247371797
1242,0.39330464601516724,0.5081624984741211,0.92,0.8,0.00031498026247371797
1243,0.3933045566082001,0.5081669092178345,0.92,0.8,0.00031498026247371797
1244,0.3933044373989105,0.5081680417060852,0.92,0.8,0.00031498026247371797
1245,0.3933042883872986,0.5081722736358643,0.92,0.8,0.00031498026247371797
1246,0.39330416917800903,0.5081703066825867,0.92,0.8,0.00031498026247371797
1247,0.3933040201663971,0.5081713795661926,0.92,0.8,0.00031498026247371797
1248,0.39330390095710754,0.5081747174263,0.92,0.8,0.00031498026247371797
1249,0.39330384135246277,0.5081800222396851,0.92,0.8,0.00031498026247371797
1250,0.3933037221431732,0.5081806778907776,0.92,0.8,0.00031498026247371797
1251,0.39330360293388367,0.5081794261932373,0.92,0.8,0.00031498026247371797
1252,0.39330345392227173,0.5081800222396851,0.92,0.8,0.00031498026247371797
1253,0.39330336451530457,0.5081854462623596,0.92,0.8,0.00031498026247371797
1254,0.3933032155036926,0.5081863403320312,0.92,0.8,0.00031498026247371797
1255,0.39330315589904785,0.5081909894943237,0.92,0.8,0.00031498026247371797
1256,0.3933030068874359,0.5081930756568909,0.92,0.8,0.00031498026247371797
1257,0.39330291748046875,0.508192777633667,0.92,0.8,0.00031498026247371797
1258,0.3933027982711792,0.5081942081451416,0.92,0.8,0.00031498026247371797
1259,0.3933026194572449,0.5081953406333923,0.92,0.8,0.00031498026247371797
1260,0.3933025598526001,0.5081977248191833,0.92,0.8,0.00031498026247371797
1261,0.39330247044563293,0.5081978440284729,0.92,0.8,0.00031498026247371797
1262,0.393302321434021,0.5081978440284729,0.92,0.8,0.00031498026247371797
1263,0.39330220222473145,0.5081988573074341,0.92,0.8,0.00031498026247371797
1264,0.3933020830154419,0.5081971883773804,0.92,0.8,0.00031498026247371797
1265,0.39330199360847473,0.5081992149353027,0.92,0.8,0.00031498026247371797
1266,0.3933018743991852,0.508200466632843,0.92,0.8,0.00031498026247371797
1267,0.39330172538757324,0.5082037448883057,0.92,0.8,0.00031498026247371797
1268,0.39330169558525085,0.5082018375396729,0.92,0.8,0.00031498026247371797
1269,0.3933015763759613,0.5082038640975952,0.92,0.8,0.00031498026247371797
1270,0.39330145716667175,0.5082070231437683,0.92,0.8,0.00031498026247371797
1271,0.3933012783527374,0.5082089304924011,0.92,0.8,0.00031498026247371797
1272,0.3933013081550598,0.5082070231437683,0.92,0.8,0.00031498026247371797
1273,0.3933011293411255,0.5082071423530579,0.92,0.8,0.00031498026247371797
1274,0.3933010399341583,0.5082066059112549,0.92,0.8,0.00031498026247371797
1275,0.3933008909225464,0.508207380771637,0.92,0.8,0.00031498026247371797
1276,0.393300861120224,0.5082083344459534,0.92,0.8,0.00031498026247371797
1277,0.39330071210861206,0.5082085728645325,0.92,0.8,0.00031498026247371797
1278,0.3933006227016449,0.5082019567489624,0.92,0.8,0.00031498026247371797
1279,0.39330050349235535,0.5082013607025146,0.92,0.8,0.00031498026247371797
1280,0.3933003544807434,0.5082018375396729,0.92,0.8,0.00031498026247371797
1281,0.39330029487609863,0.5082029700279236,0.92,0.8,0.00031498026247371797
1282,0.3933001756668091,0.5082027316093445,0.92,0.8,0.00031498026247371797
1283,0.39330005645751953,0.5082011818885803,0.92,0.8,0.00031498026247371797
1284,0.39330002665519714,0.5082011222839355,0.92,0.8,0.00031498026247371797
1285,0.3932999074459076,0.5082021951675415,0.92,0.8,0.00031498026247371797
1286,0.39329975843429565,0.5082017779350281,0.92,0.8,0.00031498026247371797
1287,0.3932996392250061,0.5082005262374878,0.92,0.8,0.00031498026247371797
1288,0.3932996094226837,0.5081994533538818,0.92,0.8,0.00031498026247371797
1289,0.39329949021339417,0.5081989169120789,0.92,0.8,0.00031498026247371797
1290,0.393299400806427,0.5082005858421326,0.92,0.8,0.00031498026247371797
1291,0.3932993412017822,0.5082002282142639,0.92,0.8,0.00031498026247371797
1292,0.3932991921901703,0.5081993341445923,0.92,0.8,0.00031498026247371797
1293,0.39329907298088074,0.5081995129585266,0.92,0.8,0.00031498026247371797
1294,0.3932989835739136,0.5081983804702759,0.92,0.8,0.00031498026247371797
1295,0.3932989239692688,0.5081987977027893,0.92,0.8,0.00031498026247371797
1296,0.39329883456230164,0.5081961154937744,0.92,0.8,0.00031498026247371797
1297,0.3932987153530121,0.5081933736801147,0.92,0.8,0.00031498026247371797
1298,0.39329859614372253,0.5081910490989685,0.92,0.8,0.00031498026247371797
1299,0.39329853653907776,0.5081900954246521,0.92,0.8,0.00031498026247371797
1300,0.3932984471321106,0.5081883668899536,0.92,0.8,0.00031498026247371797
1301,0.39329832792282104,0.5081881284713745,0.92,0.8,0.00031498026247371797
1302,0.3932982385158539,0.5081888437271118,0.92,0.8,0.00031498026247371797
1303,0.3932981491088867,0.5081882476806641,0.92,0.8,0.00031498026247371797
1304,0.39329802989959717,0.5081866979598999,0.92,0.8,0.00031498026247371797
1305,0.3932979702949524,0.5081861019134521,0.92,0.8,0.00031498026247371797
1306,0.39329788088798523,0.5081830024719238,0.92,0.8,0.00031498026247371797
1307,0.3932977318763733,0.5081811547279358,0.92,0.8,0.00031498026247371797
1308,0.3932977020740509,0.5081809163093567,0.92,0.8,0.00031498026247371797
1309,0.3932974636554718,0.5081772804260254,0.92,0.8,0.00031498026247371797
1310,0.3932974636554718,0.5081745386123657,0.92,0.8,0.00031498026247371797
1311,0.39329737424850464,0.5081736445426941,0.92,0.8,0.00031498026247371797
1312,0.3932972252368927,0.5081727504730225,0.92,0.8,0.00031498026247371797
1313,0.3932972848415375,0.5081680417060852,0.92,0.8,0.00031498026247371797
1314,0.39329710602760315,0.5081678032875061,0.92,0.8,0.00031498026247371797
1315,0.39329707622528076,0.5081672072410583,0.92,0.8,0.00031498026247371797
1316,0.3932969272136688,0.5081666707992554,0.92,0.8,0.00031498026247371797
1317,0.39329689741134644,0.5081628561019897,0.92,0.8,0.00031498026247371797
1318,0.3932967782020569,0.5081589818000793,0.92,0.8,0.00031498026247371797
1319,0.3932966887950897,0.5081570744514465,0.92,0.8,0.00031498026247371797
1320,0.39329659938812256,0.50815749168396,0.92,0.8,0.00031498026247371797
1321,0.3932965397834778,0.5081546306610107,0.92,0.8,0.00031498026247371797
1322,0.39329636096954346,0.5081542134284973,0.92,0.8,0.00031498026247371797
1323,0.3932962715625763,0.5081549286842346,0.92,0.8,0.00031498026247371797
1324,0.3932962715625763,0.5081513524055481,0.92,0.8,0.00031498026247371797
1325,0.39329612255096436,0.508150577545166,0.92,0.8,0.00031498026247371797
1326,0.39329609274864197,0.5081486105918884,0.92,0.8,0.00031498026247371797
1327,0.3932959735393524,0.5081465244293213,0.92,0.8,0.00031498026247371797
1328,0.39329585433006287,0.5081420540809631,0.92,0.8,0.00031498026247371797
1329,0.39329588413238525,0.5081417560577393,0.92,0.8,0.00031498026247371797
1330,0.3932957947254181,0.5081417560577393,0.92,0.8,0.00031498026247371797
1331,0.39329567551612854,0.5081402063369751,0.92,0.8,0.00031498026247371797
1332,0.3932955861091614,0.5081362128257751,0.92,0.8,0.00031498026247371797
1333,0.3932955265045166,0.5081315636634827,0.92,0.8,0.00031498026247371797
1334,0.39329540729522705,0.508128821849823,0.92,0.8,0.00031498026247371797
1335,0.3932953178882599,0.5081257224082947,0.92,0.8,0.00031498026247371797
1336,0.39329519867897034,0.5081233382225037,0.92,0.8,0.0002499999999999997
1337,0.39329516887664795,0.5081225037574768,0.92,0.8,0.0002499999999999997
1338,0.3932951092720032,0.5081233382225037,0.92,0.8,0.0002499999999999997
1339,0.3932949900627136,0.5081230401992798,0.92,0.8,0.0002499999999999997
1340,0.3932949900627136,0.5081210732460022,0.92,0.8,0.0002499999999999997
1341,0.39329493045806885,0.5081182718276978,0.92,0.8,0.0002499999999999997
1342,0.3932948708534241,0.5081146359443665,0.92,0.8,0.0002499999999999997
1343,0.3932947814464569,0.5081142783164978,0.92,0.8,0.0002499999999999997
1344,0.39329469203948975,0.5081127882003784,0.92,0.8,0.0002499999999999997
1345,0.39329463243484497,0.5081105828285217,0.92,0.8,0.0002499999999999997
1346,0.3932946026325226,0.5081079006195068,0.92,0.8,0.0002499999999999997
1347,0.39329448342323303,0.5081063508987427,0.92,0.8,0.0002499999999999997
1348,0.39329442381858826,0.5081048011779785,0.92,0.8,0.0002499999999999997
1349,0.39329442381858826,0.5081037282943726,0.92,0.8,0.0002499999999999997
1350,0.39329442381858826,0.508100688457489,0.92,0.8,0.0002499999999999997
1351,0.3932943046092987,0.5080968737602234,0.92,0.8,0.0002499999999999997
1352,0.39329418540000916,0.508094310760498,0.92,0.8,0.0002499999999999997
1353,0.39329415559768677,0.5080894231796265,0.92,0.8,0.0002499999999999997
1354,0.3932940661907196,0.5080862641334534,0.92,0.8,0.0002499999999999997
1355,0.39329397678375244,0.5080848336219788,0.92,0.8,0.0002499999999999997
1356,0.39329394698143005,0.5080824494361877,0.92,0.8,0.0002499999999999997
1357,0.39329391717910767,0.50808185338974,0.92,0.8,0.0002499999999999997
1358,0.39329391717910767,0.5080804228782654,0.92,0.8,0.0002499999999999997
1359,0.3932937681674957,0.5080704689025879,0.92,0.8,0.0002499999999999997
1360,0.3932937681674957,0.508070170879364,0.92,0.8,0.0002499999999999997
1361,0.3932936191558838,0.5080673694610596,0.92,0.8,0.0002499999999999997
1362,0.3932936191558838,0.5080640912055969,0.92,0.8,0.0002499999999999997
1363,0.3932936191558838,0.5080637335777283,0.92,0.8,0.0002499999999999997
1364,0.3932935297489166,0.5080642700195312,0.92,0.8,0.0002499999999999997
1365,0.39329347014427185,0.5080624222755432,0.92,0.8,0.0002499999999999997
1366,0.3932933509349823,0.5080592036247253,0.92,0.8,0.0002499999999999997
1367,0.3932932913303375,0.5080581903457642,0.92,0.8,0.0002499999999999997
1368,0.3932932913303375,0.5080568790435791,0.92,0.8,0.0002499999999999997
1369,0.39329323172569275,0.508053183555603,0.92,0.8,0.0002499999999999997
1370,0.3932931423187256,0.5080505013465881,0.92,0.8,0.0002499999999999997
1371,0.3932930827140808,0.5080507397651672,0.92,0.8,0.0002499999999999997
1372,0.39329296350479126,0.5080495476722717,0.92,0.8,0.0002499999999999997
1373,0.39329302310943604,0.5080465078353882,0.92,0.8,0.0002499999999999997
1374,0.39329296350479126,0.5080442428588867,0.92,0.8,0.0002499999999999997
1375,0.3932928442955017,0.50804203748703,0.92,0.8,0.0002499999999999997
1376,0.39329278469085693,0.5080408453941345,0.92,0.8,0.0002499999999999997
1377,0.39329272508621216,0.5080381631851196,0.92,0.8,0.0002499999999999997
1378,0.39329269528388977,0.5080372095108032,0.92,0.8,0.0002499999999999997
1379,0.3932926654815674,0.508033812046051,0.92,0.8,0.0002499999999999997
1380,0.3932925760746002,0.5080340504646301,0.92,0.8,0.0002499999999999997
1381,0.39329251646995544,0.5080341696739197,0.92,0.8,0.0002499999999999997
1382,0.39329245686531067,0.5080289840698242,0.92,0.8,0.0002499999999999997
1383,0.3932923972606659,0.5080249309539795,0.92,0.8,0.0002499999999999997
1384,0.3932923972606659,0.5080234408378601,0.92,0.8,0.0002499999999999997
1385,0.39329230785369873,0.5080204606056213,0.92,0.8,0.0002499999999999997
1386,0.39329224824905396,0.5080182552337646,0.92,0.8,0.0002499999999999997
1387,0.3932921886444092,0.5080161094665527,0.92,0.8,0.0002499999999999997
1388,0.3932921588420868,0.5080115795135498,0.92,0.8,0.0002499999999999997
1389,0.39329203963279724,0.5080124139785767,0.92,0.8,0.0002499999999999997
1390,0.39329200983047485,0.5080117583274841,0.92,0.8,0.0002499999999999997
1391,0.39329198002815247,0.5080093741416931,0.92,0.8,0.0002499999999999997
1392,0.3932918608188629,0.5080086588859558,0.92,0.8,0.0002499999999999997
1393,0.3932918310165405,0.5080044269561768,0.92,0.8,0.0002499999999999997
1394,0.39329177141189575,0.50799959897995,0.92,0.8,0.0002499999999999997
1395,0.393291711807251,0.5079970359802246,0.92,0.8,0.0002499999999999997
1396,0.3932916522026062,0.5079962015151978,0.92,0.8,0.0002499999999999997
1397,0.3932916522026062,0.5079943537712097,0.92,0.8,0.0002499999999999997
1398,0.39329156279563904,0.5079905986785889,0.92,0.8,0.0002499999999999997
1399,0.39329150319099426,0.5079882144927979,0.92,0.8,0.0002499999999999997
1400,0.39329150319099426,0.5079860091209412,0.92,0.8,0.0002499999999999997
1401,0.3932914435863495,0.5079827904701233,0.92,0.8,0.0002499999999999997
1402,0.3932913541793823,0.5079777836799622,0.92,0.8,0.0002499999999999997
1403,0.3932913541793823,0.5079717040061951,0.92,0.8,0.0002499999999999997
1404,0.3932912349700928,0.5079711675643921,0.92,0.8,0.0002499999999999997
1405,0.3932912051677704,0.5079731941223145,0.92,0.8,0.0002499999999999997
1406,0.3932911157608032,0.5079700350761414,0.92,0.8,0.0002499999999999997
1407,0.39329105615615845,0.507966935634613,0.92,0.8,0.0002499999999999997
1408,0.3932909667491913,0.5079644918441772,0.92,0.8,0.0002499999999999997
1409,0.39329102635383606,0.5079618096351624,0.92,0.8,0.0002499999999999997
1410,0.3932909667491913,0.5079587697982788,0.92,0.8,0.0002499999999999997
1411,0.3932908773422241,0.5079565644264221,0.92,0.8,0.0002499999999999997
1412,0.39329075813293457,0.5079541802406311,0.92,0.8,0.0002499999999999997
1413,0.39329081773757935,0.5079508423805237,0.92,0.8,0.0002499999999999997
1414,0.3932906687259674,0.5079494714736938,0.92,0.8,0.0002499999999999997
1415,0.3932906985282898,0.5079470276832581,0.92,0.8,0.0002499999999999997
1416,0.39329060912132263,0.5079444646835327,0.92,0.8,0.0002499999999999997
1417,0.39329054951667786,0.5079420208930969,0.92,0.8,0.0002499999999999997
1418,0.39329051971435547,0.5079385638237,0.92,0.8,0.0002499999999999997
1419,0.3932904303073883,0.5079377293586731,0.92,0.8,0.0002499999999999997
1420,0.3932904899120331,0.507936418056488,0.92,0.8,0.0002499999999999997
1421,0.3932904005050659,0.5079319477081299,0.92,0.8,0.0002499999999999997
1422,0.39329028129577637,0.5079300999641418,0.92,0.8,0.0002499999999999997
1423,0.39329028129577637,0.5079270005226135,0.92,0.8,0.0002499999999999997
1424,0.393290251493454,0.5079238414764404,0.92,0.8,0.0002499999999999997
1425,0.3932901620864868,0.5079216957092285,0.92,0.8,0.0002499999999999997
1426,0.39329013228416443,0.5079188346862793,0.92,0.8,0.0002499999999999997
1427,0.39329010248184204,0.5079169869422913,0.92,0.8,0.0002499999999999997
1428,0.3932900130748749,0.5079136490821838,0.92,0.8,0.0002499999999999997
1429,0.3932899832725525,0.5079090595245361,0.92,0.8,0.0002499999999999997
1430,0.3932899236679077,0.5079084038734436,0.92,0.8,0.0002499999999999997
1431,0.39328983426094055,0.5079041719436646,0.92,0.8,0.0002499999999999997
1432,0.39328986406326294,0.5079012513160706,0.92,0.8,0.0002499999999999997
1433,0.39328983426094055,0.507900059223175,0.92,0.8,0.0002499999999999997
1434,0.393289715051651,0.5078971982002258,0.92,0.8,0.0002499999999999997
1435,0.393289715051651,0.5078945755958557,0.92,0.8,0.0002499999999999997
1436,0.3932896554470062,0.5078929662704468,0.92,0.8,0.0002499999999999997
1437,0.39328956604003906,0.5078906416893005,0.92,0.8,0.00019842513149602464
1438,0.3932894766330719,0.50788813829422,0.92,0.8,0.00019842513149602464
1439,0.3932895362377167,0.5078861713409424,0.92,0.8,0.00019842513149602464
1440,0.3932894170284271,0.5078839063644409,0.92,0.8,0.00019842513149602464
1441,0.39328938722610474,0.5078821778297424,0.92,0.8,0.00019842513149602464
1442,0.3932894170284271,0.5078794360160828,0.92,0.8,0.00019842513149602464
1443,0.39328932762145996,0.5078794360160828,0.92,0.8,0.00019842513149602464
1444,0.3932892680168152,0.5078766345977783,0.92,0.8,0.00019842513149602464
1445,0.3932892978191376,0.5078745484352112,0.92,0.8,0.00019842513149602464
1446,0.3932892680168152,0.5078732371330261,0.92,0.8,0.00019842513149602464
1447,0.3932892084121704,0.5078710317611694,0.92,0.8,0.00019842513149602464
1448,0.393289178609848,0.50786954164505,0.92,0.8,0.00019842513149602464
1449,0.39328914880752563,0.5078672766685486,0.92,0.8,0.00019842513149602464
1450,0.39328911900520325,0.5078645348548889,0.92,0.8,0.00019842513149602464
1451,0.39328905940055847,0.5078607201576233,0.92,0.8,0.00019842513149602464
1452,0.3932890295982361,0.5078606009483337,0.92,0.8,0.00019842513149602464
1453,0.3932889997959137,0.5078569054603577,0.92,0.8,0.00019842513149602464
1454,0.39328891038894653,0.507856011390686,0.92,0.8,0.00019842513149602464
1455,0.39328888058662415,0.5078546404838562,0.92,0.8,0.00019842513149602464
1456,0.39328891038894653,0.5078516602516174,0.92,0.8,0.00019842513149602464
1457,0.39328885078430176,0.5078490972518921,0.92,0.8,0.00019842513149602464
1458,0.393288791179657,0.5078467130661011,0.92,0.8,0.00019842513149602464
1459,0.393288791179657,0.5078450441360474,0.92,0.8,0.00019842513149602464
1460,0.3932887315750122,0.5078418850898743,0.92,0.8,0.00019842513149602464
1461,0.39328864216804504,0.5078399777412415,0.92,0.8,0.00019842513149602464
1462,0.39328858256340027,0.5078380107879639,0.92,0.8,0.00019842513149602464
1463,0.39328858256340027,0.507835865020752,0.92,0.8,0.00019842513149602464
1464,0.39328861236572266,0.5078341960906982,0.92,0.8,0.00019842513149602464
1465,0.3932884931564331,0.5078321695327759,0.92,0.8,0.00019842513149602464
1466,0.3932884931564331,0.5078294277191162,0.92,0.8,0.00019842513149602464
1467,0.3932884931564331,0.5078266859054565,0.92,0.8,0.00019842513149602464
1468,0.39328837394714355,0.5078261494636536,0.92,0.8,0.00019842513149602464
1469,0.39328837394714355,0.5078232288360596,0.92,0.8,0.00019842513149602464
1470,0.39328834414482117,0.5078202486038208,0.92,0.8,0.00019842513149602464
1471,0.3932883143424988,0.5078186988830566,0.92,0.8,0.00019842513149602464
1472,0.3932883143424988,0.5078153610229492,0.92,0.8,0.00019842513149602464
1473,0.39328819513320923,0.507813036441803,0.92,0.8,0.00019842513149602464
1474,0.39328819513320923,0.5078122615814209,0.92,0.8,0.00019842513149602464
1475,0.39328819513320923,0.5078101754188538,0.92,0.8,0.00019842513149602464
1476,0.3932880759239197,0.5078071355819702,0.92,0.8,0.00019842513149602464
1477,0.39328810572624207,0.5078058242797852,0.92,0.8,0.00019842513149602464
1478,0.3932880461215973,0.5078049898147583,0.92,0.8,0.00019842513149602464
1479,0.3932880461215973,0.5078018307685852,0.92,0.8,0.00019842513149602464
1480,0.3932879567146301,0.5077996253967285,0.92,0.8,0.00019842513149602464
1481,0.3932880163192749,0.5077973008155823,0.92,0.8,0.00019842513149602464
1482,0.39328792691230774,0.5077958106994629,0.92,0.8,0.00019842513149602464
1483,0.39328789710998535,0.5077939033508301,0.92,0.8,0.00019842513149602464
1484,0.3932878375053406,0.5077906250953674,0.92,0.8,0.00019842513149602464
1485,0.3932878077030182,0.5077880620956421,0.92,0.8,0.00019842513149602464
1486,0.3932877480983734,0.5077862739562988,0.92,0.8,0.00019842513149602464
1487,0.3932877480983734,0.5077835321426392,0.92,0.8,0.00019842513149602464
1488,0.39328765869140625,0.507781445980072,0.92,0.8,0.00019842513149602464
1489,0.39328765869140625,0.5077783465385437,0.92,0.8,0.00019842513149602464
1490,0.39328765869140625,0.5077769756317139,0.92,0.8,0.00019842513149602464
1491,0.39328762888908386,0.5077753067016602,0.92,0.8,0.00019842513149602464
1492,0.3932875394821167,0.5077730417251587,0.92,0.8,0.00019842513149602464
1493,0.3932875394821167,0.507770836353302,0.92,0.8,0.00019842513149602464
1494,0.3932875096797943,0.5077680349349976,0.92,0.8,0.00019842513149602464
1495,0.3932874798774719,0.507765531539917,0.92,0.8,0.00019842513149602464
1496,0.3932873606681824,0.507763147354126,0.92,0.8,0.00019842513149602464
1497,0.3932873606681824,0.5077633857727051,0.92,0.8,0.00019842513149602464
1498,0.39328742027282715,0.5077602863311768,0.92,0.8,0.00019842513149602464
1499,0.3932873010635376,0.5077581405639648,0.92,0.8,0.00019842513149602464
1500,0.3932873010635376,0.5077558755874634,0.92,0.8,0.00019842513149602464
1501,0.3932872712612152,0.5077526569366455,0.92,0.8,0.00019842513149602464
1502,0.3932872414588928,0.5077499747276306,0.92,0.8,0.00019842513149602464
1503,0.3932872414588928,0.5077491998672485,0.92,0.8,0.00019842513149602464
1504,0.39328712224960327,0.5077462196350098,0.92,0.8,0.00019842513149602464
1505,0.39328715205192566,0.5077446103096008,0.92,0.8,0.00019842513149602464
1506,0.39328712224960327,0.5077437162399292,0.92,0.8,0.00019842513149602464
1507,0.3932870626449585,0.5077413320541382,0.92,0.8,0.00019842513149602464
1508,0.3932870924472809,0.5077388286590576,0.92,0.8,0.00019842513149602464
1509,0.39328697323799133,0.5077380537986755,0.92,0.8,0.00019842513149602464
1510,0.3932870626449585,0.5077358484268188,0.92,0.8,0.00019842513149602464
1511,0.39328694343566895,0.5077342391014099,0.92,0.8,0.00019842513149602464
1512,0.3932868540287018,0.5077310800552368,0.92,0.8,0.00019842513149602464
1513,0.39328688383102417,0.5077294707298279,0.92,0.8,0.00019842513149602464
1514,0.3932868242263794,0.5077260732650757,0.92,0.8,0.00019842513149602464
1515,0.39328673481941223,0.5077260136604309,0.92,0.8,0.00019842513149602464
1516,0.39328673481941223,0.5077226161956787,0.92,0.8,0.00019842513149602464
1517,0.39328670501708984,0.507719874382019,0.92,0.8,0.00019842513149602464
1518,0.39328670501708984,0.5077180862426758,0.92,0.8,0.00019842513149602464
1519,0.39328667521476746,0.5077146291732788,0.92,0.8,0.00019842513149602464
1520,0.3932866156101227,0.5077134370803833,0.92,0.8,0.00019842513149602464
1521,0.3932865858078003,0.5077106356620789,0.92,0.8,0.00019842513149602464
1522,0.3932865560054779,0.5077077746391296,0.92,0.8,0.00019842513149602464
1523,0.3932865262031555,0.5077067017555237,0.92,0.8,0.00019842513149602464
1524,0.39328646659851074,0.507703959941864,0.92,0.8,0.00019842513149602464
1525,0.39328643679618835,0.5077024102210999,0.92,0.8,0.00019842513149602464
1526,0.39328640699386597,0.5077016353607178,0.92,0.8,0.00019842513149602464
1527,0.39328643679618835,0.5077008605003357,0.92,0.8,0.00019842513149602464
1528,0.3932863473892212,0.5076966285705566,0.92,0.8,0.00019842513149602464
1529,0.3932863175868988,0.5076922178268433,0.92,0.8,0.00019842513149602464
1530,0.3932863175868988,0.5076881051063538,0.92,0.8,0.00019842513149602464
1531,0.39328619837760925,0.5076865553855896,0.92,0.8,0.00019842513149602464
1532,0.39328619837760925,0.5076837539672852,0.92,0.8,0.00019842513149602464
1533,0.39328619837760925,0.5076814889907837,0.92,0.8,0.00019842513149602464
1534,0.39328619837760925,0.5076794624328613,0.92,0.8,0.00019842513149602464
1535,0.3932861387729645,0.5076790452003479,0.92,0.8,0.00019842513149602464
1536,0.3932861387729645,0.507676899433136,0.92,0.8,0.00019842513149602464
1537,0.3932861089706421,0.5076748728752136,0.92,0.8,0.00019842513149602464
1538,0.3932860493659973,0.5076737403869629,0.92,0.8,0.00015749013123685888
1539,0.3932861089706421,0.5076724886894226,0.92,0.8,0.00015749013123685888
1540,0.3932860195636749,0.5076715350151062,0.92,0.8,0.00015749013123685888
1541,0.39328593015670776,0.5076701045036316,0.92,0.8,0.00015749013123685888
1542,0.39328593015670776,0.5076678991317749,0.92,0.8,0.00015749013123685888
1543,0.3932859003543854,0.5076658129692078,0.92,0.8,0.00015749013123685888
1544,0.3932859003543854,0.5076658129692078,0.92,0.8,0.00015749013123685888
1545,0.3932858407497406,0.5076630115509033,0.92,0.8,0.00015749013123685888
1546,0.393285870552063,0.5076602697372437,0.92,0.8,0.00015749013123685888
1547,0.3932858407497406,0.5076595544815063,0.92,0.8,0.00015749013123685888
1548,0.3932858407497406,0.5076576471328735,0.92,0.8,0.00015749013123685888
1549,0.3932857811450958,0.5076563358306885,0.92,0.8,0.00015749013123685888
1550,0.39328572154045105,0.507654070854187,0.92,0.8,0.00015749013123685888
1551,0.39328572154045105,0.5076524615287781,0.92,0.8,0.00015749013123685888
1552,0.39328572154045105,0.5076500177383423,0.92,0.8,0.00015749013123685888
1553,0.3932856023311615,0.5076490640640259,0.92,0.8,0.00015749013123685888
1554,0.3932856321334839,0.5076480507850647,0.92,0.8,0.00015749013123685888
1555,0.3932856619358063,0.5076456665992737,0.92,0.8,0.00015749013123685888
1556,0.3932856023311615,0.5076444745063782,0.92,0.8,0.00015749013123685888
1557,0.3932856023311615,0.5076432824134827,0.92,0.8,0.00015749013123685888
1558,0.39328551292419434,0.5076419711112976,0.92,0.8,0.00015749013123685888
1559,0.39328548312187195,0.5076394081115723,0.92,0.8,0.00015749013123685888
1560,0.39328551292419434,0.5076379776000977,0.92,0.8,0.00015749013123685888
1561,0.3932853937149048,0.5076356530189514,0.92,0.8,0.00015749013123685888
1562,0.39328551292419434,0.5076341032981873,0.92,0.8,0.00015749013123685888
1563,0.39328545331954956,0.5076322555541992,0.92,0.8,0.00015749013123685888
1564,0.39328533411026,0.5076315402984619,0.92,0.8,0.00015749013123685888
1565,0.3932853937149048,0.5076303482055664,0.92,0.8,0.00015749013123685888
1566,0.3932853639125824,0.5076287388801575,0.92,0.8,0.00015749013123685888
1567,0.39328533411026,0.5076273083686829,0.92,0.8,0.00015749013123685888
1568,0.3932853043079376,0.5076267719268799,0.92,0.8,0.00015749013123685888
1569,0.39328533411026,0.5076237320899963,0.92,0.8,0.00015749013123685888
1570,0.3932853043079376,0.5076208114624023,0.92,0.8,0.00015749013123685888
1571,0.39328521490097046,0.5076200366020203,0.92,0.8,0.00015749013123685888
1572,0.39328518509864807,0.5076184272766113,0.92,0.8,0.00015749013123685888
1573,0.39328518509864807,0.5076169371604919,0.92,0.8,0.00015749013123685888
1574,0.39328518509864807,0.5076149702072144,0.92,0.8,0.00015749013123685888
1575,0.3932851552963257,0.5076141953468323,0.92,0.8,0.00015749013123685888
1576,0.3932850658893585,0.5076115727424622,0.92,0.8,0.00015749013123685888
1577,0.3932850956916809,0.5076096653938293,0.92,0.8,0.00015749013123685888
1578,0.39328503608703613,0.50760817527771,0.92,0.8,0.00015749013123685888
1579,0.39328497648239136,0.507605791091919,0.92,0.8,0.00015749013123685888
1580,0.39328503608703613,0.5076051354408264,0.92,0.8,0.00015749013123685888
1581,0.39328503608703613,0.5076043605804443,0.92,0.8,0.00015749013123685888
1582,0.39328494668006897,0.5076030492782593,0.92,0.8,0.00015749013123685888
1583,0.39328494668006897,0.5076009631156921,0.92,0.8,0.00015749013123685888
1584,0.3932849168777466,0.5075982213020325,0.92,0.8,0.00015749013123685888
1585,0.3932848870754242,0.5075961351394653,0.92,0.8,0.00015749013123685888
1586,0.3932849168777466,0.5075953006744385,0.92,0.8,0.00015749013123685888
1587,0.3932848274707794,0.5075933933258057,0.92,0.8,0.00015749013123685888
1588,0.3932848274707794,0.5075924396514893,0.92,0.8,0.00015749013123685888
1589,0.39328476786613464,0.5075926780700684,0.92,0.8,0.00015749013123685888
1590,0.39328479766845703,0.5075911283493042,0.92,0.8,0.00015749013123685888
1591,0.39328476786613464,0.5075883269309998,0.92,0.8,0.00015749013123685888
1592,0.39328476786613464,0.5075870156288147,0.92,0.8,0.00015749013123685888
1593,0.3932846486568451,0.5075837969779968,0.92,0.8,0.00015749013123685888
1594,0.39328470826148987,0.5075814127922058,0.92,0.8,0.00015749013123685888
1595,0.39328470826148987,0.5075795650482178,0.92,0.8,0.00015749013123685888
1596,0.3932846188545227,0.507577121257782,0.92,0.8,0.00015749013123685888
1597,0.3932846486568451,0.5075748562812805,0.92,0.8,0.00015749013123685888
1598,0.39328455924987793,0.5075739026069641,0.92,0.8,0.00015749013123685888
1599,0.39328452944755554,0.507571280002594,0.92,0.8,0.00015749013123685888
1600,0.3932846188545227,0.5075699687004089,0.92,0.8,0.00015749013123685888
1601,0.39328452944755554,0.507568359375,0.92,0.8,0.00015749013123685888
1602,0.39328452944755554,0.5075677037239075,0.92,0.8,0.00015749013123685888
1603,0.393284410238266,0.5075666904449463,0.92,0.8,0.00015749013123685888
1604,0.393284410238266,0.5075647234916687,0.92,0.81,0.00015749013123685888
1605,0.3932843804359436,0.5075631141662598,0.92,0.81,0.00015749013123685888
1606,0.393284410238266,0.5075618624687195,0.92,0.81,0.00015749013123685888
1607,0.393284410238266,0.5075603127479553,0.92,0.81,0.00015749013123685888
1608,0.3932843804359436,0.5075576305389404,0.92,0.81,0.00015749013123685888
1609,0.39328429102897644,0.5075552463531494,0.92,0.81,0.00015749013123685888
1610,0.3932843506336212,0.5075522661209106,0.92,0.81,0.00015749013123685888
1611,0.39328429102897644,0.5075504183769226,0.92,0.81,0.00015749013123685888
1612,0.3932843506336212,0.5075498819351196,0.92,0.81,0.00015749013123685888
1613,0.39328423142433167,0.5075475573539734,0.92,0.81,0.00015749013123685888
1614,0.39328423142433167,0.5075455904006958,0.92,0.81,0.00015749013123685888
1615,0.3932842016220093,0.5075458884239197,0.92,0.81,0.00015749013123685888
1616,0.3932842016220093,0.5075438618659973,0.92,0.81,0.00015749013123685888
1617,0.3932841420173645,0.5075412392616272,0.92,0.81,0.00015749013123685888
1618,0.3932841122150421,0.507539689540863,0.92,0.81,0.00015749013123685888
1619,0.3932840824127197,0.5075368285179138,0.92,0.81,0.00015749013123685888
1620,0.3932841420173645,0.507534921169281,0.92,0.81,0.00015749013123685888
1621,0.3932840824127197,0.507533848285675,0.92,0.81,0.00015749013123685888
1622,0.3932841420173645,0.5075333118438721,0.92,0.81,0.00015749013123685888
1623,0.39328399300575256,0.5075305700302124,0.92,0.81,0.00015749013123685888
1624,0.39328402280807495,0.5075291395187378,0.92,0.81,0.00015749013123685888
1625,0.3932839632034302,0.5075272917747498,0.92,0.81,0.00015749013123685888
1626,0.3932839632034302,0.5075249075889587,0.92,0.81,0.00015749013123685888
1627,0.3932839334011078,0.5075221657752991,0.92,0.81,0.00015749013123685888
1628,0.3932839632034302,0.5075201988220215,0.92,0.81,0.00015749013123685888
1629,0.393283873796463,0.5075179934501648,0.92,0.81,0.00015749013123685888
1630,0.3932838439941406,0.50751793384552,0.92,0.81,0.00015749013123685888
1631,0.39328381419181824,0.5075153708457947,0.92,0.81,0.00015749013123685888
1632,0.39328375458717346,0.5075148344039917,0.92,0.81,0.00015749013123685888
1633,0.39328381419181824,0.5075138211250305,0.92,0.81,0.00015749013123685888
1634,0.39328375458717346,0.5075114965438843,0.92,0.81,0.00015749013123685888
1635,0.3932837247848511,0.5075094103813171,0.92,0.81,0.00015749013123685888
1636,0.3932836949825287,0.5075063109397888,0.92,0.81,0.00015749013123685888
1637,0.3932836949825287,0.5075052380561829,0.92,0.81,0.00015749013123685888
1638,0.3932836949825287,0.5075045228004456,0.92,0.81,0.00015749013123685888
1639,0.3932836949825287,0.5075038075447083,0.92,0.81,0.00012499999999999976
1640,0.3932836651802063,0.5075023770332336,0.92,0.81,0.00012499999999999976
1641,0.3932836055755615,0.5075010061264038,0.92,0.81,0.00012499999999999976
1642,0.3932836055755615,0.5074994564056396,0.92,0.81,0.00012499999999999976
1643,0.3932836651802063,0.5074974298477173,0.92,0.81,0.00012499999999999976
1644,0.3932836055755615,0.5074957013130188,0.92,0.81,0.00012499999999999976
1645,0.39328357577323914,0.5074939131736755,0.92,0.81,0.00012499999999999976
1646,0.39328354597091675,0.5074911713600159,0.92,0.81,0.00012499999999999976
1647,0.393283486366272,0.5074893832206726,0.92,0.81,0.00012499999999999976
1648,0.3932834267616272,0.5074880719184875,0.92,0.81,0.00012499999999999976
1649,0.393283486366272,0.5074867606163025,0.92,0.81,0.00012499999999999976
1650,0.39328354597091675,0.5074853301048279,0.92,0.81,0.00012499999999999976
1651,0.3932834565639496,0.507485568523407,0.92,0.81,0.00012499999999999976
1652,0.393283486366272,0.5074836015701294,0.92,0.81,0.00012499999999999976
1653,0.39328333735466003,0.5074813961982727,0.92,0.81,0.00012499999999999976
1654,0.3932834267616272,0.5074807405471802,0.92,0.81,0.00012499999999999976
1655,0.3932834267616272,0.5074794888496399,0.92,0.81,0.00012499999999999976
1656,0.39328330755233765,0.5074780583381653,0.92,0.81,0.00012499999999999976
1657,0.39328333735466003,0.5074770450592041,0.92,0.81,0.00012499999999999976
1658,0.39328330755233765,0.5074767470359802,0.92,0.81,0.00012499999999999976
1659,0.39328333735466003,0.5074752569198608,0.92,0.81,0.00012499999999999976
