,train loss,val loss,train acc,val acc,lr
0,0.686591386795044,0.6737069487571716,0.71,0.64,0.001
1,0.6648162603378296,0.6615104079246521,0.69,0.64,0.001
2,0.6456407904624939,0.6525466442108154,0.69,0.64,0.001
3,0.629436194896698,0.6473214626312256,0.69,0.64,0.001
4,0.6168152093887329,0.6462650299072266,0.69,0.64,0.001
5,0.6085954308509827,0.6487393975257874,0.69,0.64,0.001
6,0.6049715280532837,0.6519198417663574,0.69,0.64,0.001
7,0.6039090156555176,0.6523836255073547,0.69,0.64,0.001
8,0.6016989350318909,0.6488175988197327,0.69,0.64,0.001
9,0.5961818695068359,0.6421269178390503,0.69,0.64,0.001
10,0.5881204009056091,0.6343610882759094,0.69,0.64,0.001
11,0.5797417163848877,0.6272633075714111,0.7,0.63,0.001
12,0.5727020502090454,0.6216621994972229,0.71,0.6,0.001
13,0.5675631165504456,0.6176133155822754,0.74,0.62,0.001
14,0.5640376210212708,0.6145910620689392,0.74,0.69,0.001
15,0.5611773729324341,0.6117812395095825,0.76,0.7,0.001
16,0.5578227639198303,0.6084972023963928,0.76,0.69,0.001
17,0.553261935710907,0.6044747829437256,0.77,0.69,0.001
18,0.5476071238517761,0.5997798442840576,0.77,0.69,0.001
19,0.5414267182350159,0.5942651629447937,0.76,0.7,0.001
20,0.5347181558609009,0.5926945209503174,0.77,0.71,0.001
21,0.5269486904144287,0.6057953834533691,0.8,0.69,0.001
22,0.5327728390693665,0.5909245014190674,0.77,0.69,0.001
23,0.5239378809928894,0.6094434261322021,0.79,0.64,0.001
24,0.5375645756721497,0.6135941743850708,0.76,0.65,0.001
25,0.5405328273773193,0.6077935695648193,0.75,0.65,0.001
26,0.5347245931625366,0.5947940945625305,0.75,0.67,0.001
27,0.5237590670585632,0.582518994808197,0.78,0.71,0.001
28,0.5166186094284058,0.5808073878288269,0.8,0.71,0.001
29,0.5201219320297241,0.5827782154083252,0.78,0.7,0.001
30,0.5257618427276611,0.5826574563980103,0.77,0.7,0.001
31,0.5243802070617676,0.5787107944488525,0.77,0.71,0.001
32,0.5169568061828613,0.569911777973175,0.78,0.71,0.001
33,0.5095007419586182,0.5706509947776794,0.81,0.71,0.001
34,0.5103944540023804,0.579176664352417,0.79,0.7,0.001
35,0.5119372010231018,0.5901249051094055,0.78,0.69,0.001
36,0.5052861571311951,0.5910609364509583,0.78,0.68,0.001
37,0.49412083625793457,0.5799625515937805,0.8,0.71,0.001
38,0.48369354009628296,0.568516731262207,0.81,0.73,0.001
39,0.4785889685153961,0.5633853673934937,0.82,0.75,0.001
40,0.4755922555923462,0.5624232888221741,0.82,0.76,0.001
41,0.47108909487724304,0.561448335647583,0.84,0.75,0.001
42,0.46586892008781433,0.5570138692855835,0.84,0.76,0.001
43,0.4591268301010132,0.5507875680923462,0.84,0.74,0.001
44,0.45127832889556885,0.5506963133811951,0.87,0.74,0.001
45,0.4475570619106293,0.5506122708320618,0.86,0.76,0.001
46,0.44996997714042664,0.552670419216156,0.87,0.75,0.001
47,0.4497759938240051,0.5485743284225464,0.86,0.76,0.001
48,0.44728410243988037,0.5470286011695862,0.86,0.76,0.001
49,0.4441642761230469,0.5470877289772034,0.86,0.75,0.001
50,0.4415266811847687,0.5415638089179993,0.88,0.75,0.001
51,0.43722742795944214,0.5320108532905579,0.88,0.75,0.001
52,0.4440123438835144,0.5422844886779785,0.84,0.75,0.001
53,0.4433378577232361,0.5376209020614624,0.88,0.76,0.001
54,0.43576645851135254,0.5276944041252136,0.89,0.75,0.001
55,0.4383929371833801,0.5309513807296753,0.87,0.76,0.001
56,0.4309925138950348,0.5317864418029785,0.89,0.77,0.001
57,0.4323525130748749,0.5245485305786133,0.89,0.77,0.001
58,0.42976707220077515,0.5203133225440979,0.89,0.78,0.001
59,0.4286566972732544,0.5273112654685974,0.89,0.76,0.001
60,0.42680826783180237,0.5281824469566345,0.9,0.76,0.001
61,0.4277770221233368,0.5214269161224365,0.9,0.78,0.001
62,0.4267711937427521,0.5204527378082275,0.9,0.77,0.001
63,0.42361214756965637,0.5223557353019714,0.9,0.78,0.001
64,0.4246838092803955,0.5137065649032593,0.89,0.79,0.001
65,0.423164963722229,0.5124603509902954,0.89,0.79,0.001
66,0.42276766896247864,0.5247589349746704,0.9,0.77,0.001
67,0.42301297187805176,0.5188553333282471,0.88,0.79,0.001
68,0.41931042075157166,0.5142425298690796,0.9,0.79,0.001
69,0.4205825924873352,0.5193461775779724,0.9,0.77,0.001
70,0.41796356439590454,0.5204900503158569,0.89,0.78,0.001
71,0.41655635833740234,0.5145312547683716,0.89,0.78,0.001
72,0.41639626026153564,0.5208112597465515,0.9,0.77,0.001
73,0.4156247675418854,0.5180209279060364,0.9,0.78,0.001
74,0.41392385959625244,0.5168826580047607,0.9,0.77,0.001
75,0.41343918442726135,0.518001914024353,0.9,0.77,0.001
76,0.41367876529693604,0.5155913829803467,0.89,0.77,0.001
77,0.4130980372428894,0.517335057258606,0.9,0.77,0.001
78,0.4119221866130829,0.5186387300491333,0.9,0.77,0.001
79,0.41112446784973145,0.5165785551071167,0.9,0.78,0.001
80,0.41093194484710693,0.5202935934066772,0.91,0.76,0.001
81,0.41098979115486145,0.5115466117858887,0.9,0.79,0.001
82,0.4128585457801819,0.5243783593177795,0.89,0.77,0.001
83,0.4155682325363159,0.5168051719665527,0.9,0.78,0.001
84,0.41107097268104553,0.5067803859710693,0.9,0.79,0.001
85,0.4267160892486572,0.5249311923980713,0.87,0.77,0.001
86,0.41477540135383606,0.5340023636817932,0.9,0.76,0.001
87,0.421364426612854,0.5051897168159485,0.89,0.79,0.001
88,0.4125750660896301,0.5054088234901428,0.9,0.79,0.001
89,0.41282016038894653,0.5277508497238159,0.9,0.76,0.001
90,0.4150843024253845,0.5276007652282715,0.9,0.76,0.001
91,0.41501080989837646,0.5077106356620789,0.9,0.79,0.001
92,0.4088160991668701,0.5072416067123413,0.9,0.8,0.001
93,0.4118155241012573,0.5186231136322021,0.9,0.78,0.001
94,0.40928786993026733,0.5203046202659607,0.89,0.77,0.001
95,0.409684419631958,0.5094377398490906,0.9,0.79,0.001
96,0.4080616235733032,0.5104858875274658,0.9,0.79,0.001
97,0.407459557056427,0.5231800079345703,0.9,0.77,0.001
98,0.4089442193508148,0.514668881893158,0.9,0.78,0.001
99,0.40483391284942627,0.5088337063789368,0.91,0.79,0.001
100,0.40665656328201294,0.509046196937561,0.9,0.79,0.001
101,0.4051240086555481,0.51619553565979,0.9,0.78,0.001
102,0.4048946499824524,0.5164961814880371,0.91,0.77,0.001
103,0.4042972922325134,0.5104868412017822,0.91,0.79,0.001
104,0.4039364755153656,0.5113264322280884,0.91,0.79,0.001
105,0.4040761888027191,0.5170905590057373,0.91,0.78,0.001
106,0.4036506712436676,0.5155379772186279,0.91,0.77,0.001
107,0.4030294418334961,0.5115563869476318,0.91,0.78,0.001
108,0.40478241443634033,0.5294187068939209,0.91,0.78,0.001
109,0.41545870900154114,0.51482754945755,0.9,0.77,0.001
110,0.4035237431526184,0.5014020204544067,0.91,0.79,0.001
111,0.4153139591217041,0.5295832753181458,0.88,0.76,0.001
112,0.40847623348236084,0.5329481363296509,0.9,0.76,0.001
113,0.40835249423980713,0.5160115957260132,0.9,0.79,0.001
114,0.4059213399887085,0.5158207416534424,0.9,0.79,0.001
115,0.4121631681919098,0.5264972448348999,0.9,0.78,0.001
116,0.40315353870391846,0.5386149883270264,0.91,0.76,0.001
117,0.41446033120155334,0.5305945873260498,0.9,0.77,0.001
118,0.40326884388923645,0.5219181180000305,0.91,0.78,0.001
119,0.4092482626438141,0.5153418183326721,0.89,0.78,0.001
120,0.40504249930381775,0.5321775674819946,0.9,0.77,0.001
121,0.403937429189682,0.5345590114593506,0.91,0.76,0.001
122,0.4042419493198395,0.5123562812805176,0.91,0.8,0.001
123,0.40234270691871643,0.5201421976089478,0.91,0.78,0.001
124,0.4063054323196411,0.5202412605285645,0.9,0.78,0.001
125,0.4008672833442688,0.5329113006591797,0.91,0.76,0.001
126,0.4060041010379791,0.5087802410125732,0.9,0.8,0.001
127,0.4013916850090027,0.507795512676239,0.91,0.79,0.001
128,0.40292948484420776,0.5041744112968445,0.9,0.81,0.001
129,0.4013587534427643,0.5090685486793518,0.91,0.8,0.001
130,0.40370869636535645,0.5023919939994812,0.9,0.81,0.001
131,0.40023642778396606,0.49853479862213135,0.91,0.81,0.001
132,0.40102237462997437,0.5088640451431274,0.91,0.8,0.001
133,0.40033015608787537,0.5194271206855774,0.91,0.79,0.001
134,0.4005945324897766,0.5157939791679382,0.91,0.79,0.001
135,0.40015923976898193,0.4937259256839752,0.91,0.83,0.001
136,0.39934006333351135,0.4906550347805023,0.91,0.82,0.001
137,0.4031006693840027,0.5346587896347046,0.91,0.78,0.001
138,0.4143407344818115,0.5110126733779907,0.9,0.8,0.001
139,0.4001781940460205,0.5131710171699524,0.91,0.79,0.001
140,0.4110007584095001,0.521163284778595,0.9,0.79,0.001
141,0.3997088372707367,0.5338704586029053,0.91,0.77,0.001
142,0.41558322310447693,0.5237170457839966,0.89,0.77,0.001
143,0.39963921904563904,0.5239431262016296,0.91,0.78,0.001
144,0.4039384722709656,0.5238327980041504,0.9,0.78,0.001
145,0.40688401460647583,0.5218778848648071,0.9,0.78,0.001
146,0.40430235862731934,0.5246984958648682,0.9,0.78,0.001
147,0.4018690884113312,0.5293115377426147,0.91,0.78,0.001
148,0.40149417519569397,0.5279017686843872,0.91,0.78,0.001
149,0.4048478603363037,0.525190532207489,0.9,0.77,0.001
150,0.40001922845840454,0.5235792398452759,0.91,0.78,0.001
151,0.40112534165382385,0.5225618481636047,0.91,0.78,0.001
152,0.4023653268814087,0.5228703618049622,0.9,0.78,0.001
153,0.40164878964424133,0.5245830416679382,0.91,0.78,0.001
154,0.3997899293899536,0.5262745022773743,0.91,0.79,0.001
155,0.39931607246398926,0.5251346826553345,0.91,0.79,0.001
156,0.40078118443489075,0.5213321447372437,0.91,0.79,0.001
157,0.3988451361656189,0.5196908712387085,0.91,0.79,0.001
158,0.39889052510261536,0.5191916227340698,0.91,0.79,0.001
159,0.39988917112350464,0.5187875628471375,0.91,0.79,0.001
160,0.3992801606655121,0.5189144611358643,0.91,0.8,0.001
161,0.3981902003288269,0.5214608311653137,0.91,0.79,0.001
162,0.3987031579017639,0.5236814618110657,0.91,0.78,0.001
163,0.3990122973918915,0.5216841697692871,0.91,0.8,0.001
164,0.3980993330478668,0.5193081498146057,0.91,0.79,0.001
165,0.39812010526657104,0.5185214877128601,0.91,0.79,0.001
166,0.3985099494457245,0.5183600783348083,0.91,0.79,0.001
167,0.39814135432243347,0.5187325477600098,0.91,0.8,0.001
168,0.3976418972015381,0.5196883678436279,0.91,0.79,0.001
169,0.3978336453437805,0.519845187664032,0.91,0.79,0.001
170,0.3979605436325073,0.518688440322876,0.91,0.8,0.001
171,0.39745771884918213,0.5178048014640808,0.91,0.8,0.001
172,0.3973453640937805,0.5177702307701111,0.91,0.8,0.001
173,0.3975522518157959,0.5178837776184082,0.91,0.8,0.001
174,0.3972476124763489,0.518604040145874,0.91,0.8,0.001
175,0.39695438742637634,0.5199298858642578,0.91,0.79,0.001
176,0.397098183631897,0.5198684930801392,0.92,0.79,0.001
177,0.3969167470932007,0.5185471177101135,0.91,0.8,0.001
178,0.39662984013557434,0.51738041639328,0.91,0.8,0.001
179,0.3967106342315674,0.5173313021659851,0.91,0.8,0.001
180,0.39641815423965454,0.5181593894958496,0.91,0.8,0.001
181,0.39625784754753113,0.5184164643287659,0.91,0.79,0.001
182,0.3962605595588684,0.5174760222434998,0.91,0.8,0.001
183,0.39590224623680115,0.5163589715957642,0.91,0.8,0.001
184,0.39586859941482544,0.5165147185325623,0.91,0.8,0.001
185,0.3955618739128113,0.5176615715026855,0.91,0.8,0.001
186,0.39542698860168457,0.5172998309135437,0.92,0.8,0.001
187,0.395145058631897,0.5156629681587219,0.92,0.8,0.001
188,0.3950202167034149,0.5166745185852051,0.91,0.8,0.001
189,0.3945404887199402,0.5177739858627319,0.91,0.8,0.001
190,0.39435452222824097,0.5189748406410217,0.92,0.79,0.001
191,0.39408791065216064,0.5232035517692566,0.91,0.79,0.001
192,0.3939133882522583,0.5228329300880432,0.92,0.79,0.001
193,0.3932880759239197,0.5251599550247192,0.91,0.78,0.001
194,0.39407241344451904,0.5233328342437744,0.92,0.79,0.001
195,0.392526239156723,0.5261104106903076,0.91,0.78,0.001
196,0.39488905668258667,0.5256622433662415,0.92,0.79,0.001
197,0.3948904275894165,0.5248391628265381,0.92,0.79,0.001
198,0.3946171700954437,0.5242525935173035,0.92,0.79,0.001
199,0.3902585208415985,0.5281442403793335,0.91,0.77,0.001
200,0.41240420937538147,0.5129642486572266,0.9,0.8,0.001
201,0.40550509095191956,0.5445191264152527,0.89,0.76,0.001
202,0.4208765923976898,0.5522791743278503,0.88,0.75,0.001
203,0.5003224015235901,0.6212710738182068,0.81,0.68,0.001
204,0.6260390877723694,0.6297004222869873,0.67,0.67,0.001
205,0.6225167512893677,0.5335090160369873,0.67,0.78,0.001
206,0.5218200087547302,0.5377006530761719,0.79,0.77,0.001
207,0.4929022490978241,0.5803698897361755,0.82,0.72,0.001
208,0.5171089768409729,0.5754849910736084,0.79,0.73,0.001
209,0.4995861351490021,0.5712882876396179,0.8,0.74,0.001
210,0.44954630732536316,0.5548945069313049,0.86,0.75,0.001
211,0.435522198677063,0.5192606449127197,0.88,0.79,0.001
212,0.4294305145740509,0.5202733874320984,0.87,0.78,0.001
213,0.4523683786392212,0.5321367383003235,0.85,0.76,0.001
214,0.481197714805603,0.5352621674537659,0.82,0.76,0.001
215,0.47267597913742065,0.5366882085800171,0.84,0.77,0.001
216,0.479370653629303,0.5249112844467163,0.81,0.79,0.001
217,0.4525100290775299,0.5214068293571472,0.84,0.79,0.001
218,0.45103901624679565,0.5209282040596008,0.84,0.79,0.001
219,0.44202572107315063,0.5163595676422119,0.86,0.79,0.001
220,0.43457040190696716,0.5183784365653992,0.87,0.79,0.001
221,0.4298906624317169,0.5123984217643738,0.88,0.79,0.001
222,0.4389536678791046,0.5105840563774109,0.88,0.8,0.001
223,0.44579216837882996,0.507077157497406,0.86,0.8,0.001
224,0.45089420676231384,0.5079981684684753,0.87,0.8,0.001
225,0.44542062282562256,0.5111923813819885,0.87,0.8,0.001
226,0.44025880098342896,0.5027201771736145,0.88,0.81,0.001
227,0.4303866922855377,0.5067902207374573,0.88,0.8,0.001
228,0.41920071840286255,0.5146780610084534,0.89,0.78,0.001
229,0.40363621711730957,0.523958146572113,0.9,0.78,0.001
230,0.42868277430534363,0.5149806141853333,0.88,0.79,0.001
231,0.4149989187717438,0.513785183429718,0.89,0.79,0.001
232,0.4260466396808624,0.5151635408401489,0.87,0.78,0.001
233,0.4402005672454834,0.5651400089263916,0.88,0.73,0.001
234,0.4526163339614868,0.5878896713256836,0.85,0.73,0.001
235,0.4786361753940582,0.570568323135376,0.83,0.74,0.001
236,0.4514557123184204,0.5209388136863708,0.85,0.79,0.001
237,0.4020504057407379,0.518801212310791,0.9,0.79,0.001
238,0.4597204923629761,0.5295341610908508,0.83,0.76,0.001
239,0.49404481053352356,0.5295289754867554,0.8,0.75,0.001
240,0.48427945375442505,0.5208099484443665,0.81,0.79,0.001
241,0.42721712589263916,0.5337771773338318,0.88,0.77,0.001
242,0.4392716884613037,0.635028600692749,0.87,0.67,0.001
243,0.4726148247718811,0.6707501411437988,0.85,0.64,0.001
244,0.5346065759658813,0.5420362949371338,0.77,0.77,0.001
245,0.4428831934928894,0.5260266661643982,0.86,0.78,0.001
246,0.4497307538986206,0.5662783980369568,0.86,0.73,0.001
247,0.4939238429069519,0.5865452289581299,0.79,0.71,0.001
248,0.5050121545791626,0.5864412784576416,0.82,0.71,0.001
249,0.5044502019882202,0.58367919921875,0.81,0.71,0.001
250,0.49983811378479004,0.5788904428482056,0.82,0.72,0.001
251,0.506028950214386,0.5797930955886841,0.79,0.72,0.001
252,0.49996909499168396,0.5761444568634033,0.81,0.71,0.001
253,0.5035086274147034,0.5710675716400146,0.81,0.74,0.001
254,0.49778640270233154,0.5547839999198914,0.82,0.74,0.001
255,0.4882550537586212,0.5279389023780823,0.8,0.79,0.001
256,0.4720519781112671,0.5070119500160217,0.82,0.8,0.001
257,0.4409209191799164,0.5205313563346863,0.88,0.8,0.001
258,0.4506939947605133,0.5788207650184631,0.87,0.73,0.001
259,0.48352906107902527,0.5970510244369507,0.82,0.71,0.001
260,0.49158310890197754,0.5997858047485352,0.83,0.71,0.001
261,0.5067769885063171,0.5523133277893066,0.79,0.77,0.001
262,0.478840172290802,0.49079468846321106,0.83,0.81,0.001
263,0.4397096633911133,0.4863448441028595,0.87,0.82,0.001
264,0.4326244294643402,0.4822200536727905,0.87,0.83,0.001
265,0.44850578904151917,0.49965083599090576,0.85,0.81,0.001
266,0.46976861357688904,0.5006539821624756,0.83,0.79,0.001
267,0.4751826524734497,0.48366013169288635,0.82,0.83,0.001
268,0.44976383447647095,0.48973140120506287,0.85,0.82,0.001
269,0.42996445298194885,0.4921739995479584,0.88,0.82,0.001
270,0.41540729999542236,0.5050105452537537,0.9,0.8,0.001
271,0.4279016852378845,0.537057638168335,0.89,0.78,0.001
272,0.43806999921798706,0.5751464366912842,0.88,0.74,0.001
273,0.45100998878479004,0.5805498361587524,0.86,0.73,0.001
274,0.4502740800380707,0.5642716288566589,0.86,0.75,0.001
275,0.4427555501461029,0.5017744898796082,0.87,0.8,0.001
276,0.4244541525840759,0.49297913908958435,0.89,0.81,0.001
277,0.4017774164676666,0.48349395394325256,0.91,0.83,0.001
278,0.4061518609523773,0.4814130365848541,0.9,0.83,0.001
279,0.4301956593990326,0.48133593797683716,0.88,0.83,0.001
280,0.43278488516807556,0.4811441898345947,0.88,0.83,0.001
281,0.4240487217903137,0.48281338810920715,0.88,0.82,0.001
282,0.40256115794181824,0.49170345067977905,0.91,0.81,0.001
283,0.39912933111190796,0.4983564019203186,0.92,0.82,0.001
284,0.4014199376106262,0.5057260394096375,0.92,0.81,0.001
285,0.4061967432498932,0.49178653955459595,0.91,0.82,0.001
286,0.3969060182571411,0.4818153381347656,0.92,0.84,0.001
287,0.39731621742248535,0.4793604016304016,0.92,0.84,0.001
288,0.4028153717517853,0.4777340292930603,0.91,0.84,0.001
289,0.4028100073337555,0.4778316915035248,0.91,0.84,0.001
290,0.397523432970047,0.4771311581134796,0.92,0.84,0.001
291,0.3965337872505188,0.4774141013622284,0.92,0.84,0.001
292,0.39620712399482727,0.4828123450279236,0.92,0.84,0.001
293,0.39651167392730713,0.4902951717376709,0.92,0.83,0.001
294,0.39837318658828735,0.49137070775032043,0.92,0.83,0.001
295,0.3988180160522461,0.48559460043907166,0.92,0.83,0.001
296,0.39683452248573303,0.47823983430862427,0.92,0.85,0.001
297,0.39581364393234253,0.47466185688972473,0.92,0.85,0.001
298,0.39562729001045227,0.47328105568885803,0.92,0.85,0.001
299,0.39571842551231384,0.4740927219390869,0.92,0.85,0.001
300,0.3959748446941376,0.47776710987091064,0.92,0.84,0.0007937005259840996
301,0.396250456571579,0.47862353920936584,0.92,0.84,0.0007937005259840996
302,0.3962004780769348,0.4786544442176819,0.92,0.84,0.0007937005259840996
303,0.39593297243118286,0.47802531719207764,0.92,0.84,0.0007937005259840996
304,0.39558303356170654,0.47713351249694824,0.92,0.85,0.0007937005259840996
305,0.3952043652534485,0.47654709219932556,0.92,0.85,0.0007937005259840996
306,0.3948356509208679,0.47633689641952515,0.92,0.85,0.0007937005259840996
307,0.3945298492908478,0.4763588011264801,0.92,0.85,0.0007937005259840996
308,0.3943169116973877,0.4765196144580841,0.92,0.85,0.0007937005259840996
309,0.39418041706085205,0.4768529236316681,0.92,0.85,0.0007937005259840996
310,0.3940783441066742,0.4773840308189392,0.92,0.85,0.0007937005259840996
311,0.39397406578063965,0.4781224727630615,0.92,0.85,0.0007937005259840996
312,0.39386364817619324,0.47903457283973694,0.92,0.85,0.0007937005259840996
313,0.39375826716423035,0.4799822270870209,0.92,0.85,0.0007937005259840996
314,0.39367103576660156,0.4807603061199188,0.92,0.84,0.0007937005259840996
315,0.39360031485557556,0.48118671774864197,0.92,0.84,0.0007937005259840996
316,0.3935292363166809,0.48099377751350403,0.92,0.84,0.0007937005259840996
317,0.3934413194656372,0.480131596326828,0.92,0.85,0.0007937005259840996
318,0.39332816004753113,0.4788062572479248,0.92,0.85,0.0007937005259840996
319,0.3931943476200104,0.4774295687675476,0.92,0.85,0.0007937005259840996
320,0.39305275678634644,0.4762892425060272,0.92,0.85,0.0007937005259840996
321,0.3929167091846466,0.475441575050354,0.92,0.85,0.0007937005259840996
322,0.39279109239578247,0.4748314619064331,0.92,0.85,0.0007937005259840996
323,0.3926733732223511,0.4743860363960266,0.92,0.85,0.0007937005259840996
324,0.39255645871162415,0.4740726351737976,0.92,0.85,0.0007937005259840996
325,0.39243441820144653,0.4738798439502716,0.92,0.85,0.0007937005259840996
326,0.39231207966804504,0.4737713932991028,0.92,0.85,0.0007937005259840996
327,0.3921969532966614,0.47370409965515137,0.92,0.85,0.0007937005259840996
328,0.3920942544937134,0.47361934185028076,0.92,0.85,0.0007937005259840996
329,0.3920000493526459,0.4734569191932678,0.92,0.85,0.0007937005259840996
330,0.39190173149108887,0.473209947347641,0.92,0.85,0.0007937005259840996
331,0.39179423451423645,0.4729054570198059,0.92,0.85,0.0007937005259840996
332,0.39167991280555725,0.4725991487503052,0.92,0.85,0.0007937005259840996
333,0.391566663980484,0.47235190868377686,0.92,0.85,0.0007937005259840996
334,0.39145568013191223,0.4721953868865967,0.92,0.85,0.0007937005259840996
335,0.3913438022136688,0.4721483588218689,0.92,0.85,0.0007937005259840996
336,0.39122524857521057,0.47216591238975525,0.92,0.85,0.0007937005259840996
337,0.3911048173904419,0.47222092747688293,0.92,0.85,0.0007937005259840996
338,0.39098748564720154,0.47226837277412415,0.92,0.85,0.0007937005259840996
339,0.3908727765083313,0.4722624123096466,0.92,0.85,0.0007937005259840996
340,0.3907564580440521,0.4721924960613251,0.92,0.85,0.0007937005259840996
341,0.3906346261501312,0.4720623791217804,0.92,0.85,0.0007937005259840996
342,0.39050915837287903,0.4719199240207672,0.92,0.85,0.0007937005259840996
343,0.39038631319999695,0.47181063890457153,0.92,0.85,0.0007937005259840996
344,0.39026588201522827,0.4717637896537781,0.92,0.85,0.0007937005259840996
345,0.3901439309120178,0.47179844975471497,0.92,0.85,0.0007937005259840996
346,0.390019953250885,0.4718891978263855,0.92,0.85,0.0007937005259840996
347,0.38989508152008057,0.4719819724559784,0.92,0.85,0.0007937005259840996
348,0.38977116346359253,0.47201624512672424,0.92,0.85,0.0007937005259840996
349,0.38964545726776123,0.47196874022483826,0.92,0.85,0.0007937005259840996
350,0.3895169198513031,0.47185906767845154,0.92,0.85,0.0007937005259840996
351,0.38938602805137634,0.47173014283180237,0.92,0.85,0.0007937005259840996
352,0.38925525546073914,0.47164034843444824,0.92,0.85,0.0007937005259840996
353,0.38912445306777954,0.4716097116470337,0.92,0.85,0.0007937005259840996
354,0.38899144530296326,0.47164055705070496,0.93,0.85,0.0007937005259840996
355,0.3888553977012634,0.4716857075691223,0.93,0.84,0.0007937005259840996
356,0.38871943950653076,0.471683144569397,0.93,0.84,0.0007937005259840996
357,0.38858118653297424,0.4716121256351471,0.93,0.84,0.0007937005259840996
358,0.3884398341178894,0.4715205132961273,0.94,0.84,0.0007937005259840996
359,0.38829830288887024,0.47143128514289856,0.94,0.84,0.0007937005259840996
360,0.38815486431121826,0.4713691771030426,0.94,0.84,0.0007937005259840996
361,0.3880099058151245,0.47136935591697693,0.94,0.84,0.0007937005259840996
362,0.38786303997039795,0.4713928997516632,0.94,0.84,0.0007937005259840996
363,0.3877151906490326,0.47137168049812317,0.94,0.84,0.0007937005259840996
364,0.3875648081302643,0.4713270962238312,0.94,0.84,0.0007937005259840996
365,0.38741326332092285,0.47126224637031555,0.94,0.84,0.0007937005259840996
366,0.38726043701171875,0.47120121121406555,0.94,0.84,0.0007937005259840996
367,0.38710516691207886,0.47114884853363037,0.94,0.84,0.0007937005259840996
368,0.38694822788238525,0.47116732597351074,0.94,0.84,0.0007937005259840996
369,0.3867904543876648,0.47121891379356384,0.94,0.84,0.0007937005259840996
370,0.38663139939308167,0.47122323513031006,0.94,0.84,0.0007937005259840996
371,0.3864704966545105,0.4711320400238037,0.94,0.84,0.0007937005259840996
372,0.3863057792186737,0.47111228108406067,0.94,0.84,0.0007937005259840996
373,0.38614216446876526,0.471095472574234,0.94,0.84,0.0007937005259840996
374,0.3859753906726837,0.471198171377182,0.94,0.84,0.0007937005259840996
375,0.3858082592487335,0.47125357389450073,0.94,0.84,0.0007937005259840996
376,0.385640025138855,0.4712097644805908,0.94,0.84,0.0007937005259840996
377,0.3854692876338959,0.47118446230888367,0.94,0.84,0.0007937005259840996
378,0.3852976858615875,0.4712323248386383,0.94,0.84,0.0007937005259840996
379,0.3851257562637329,0.47136420011520386,0.94,0.84,0.0007937005259840996
380,0.3849529027938843,0.4714505076408386,0.94,0.84,0.0007937005259840996
381,0.38477814197540283,0.4714844226837158,0.94,0.84,0.0007937005259840996
382,0.38460347056388855,0.4714809060096741,0.94,0.84,0.0007937005259840996
383,0.3844281733036041,0.4716314673423767,0.94,0.84,0.0007937005259840996
384,0.3842534124851227,0.4717746675014496,0.94,0.84,0.0007937005259840996
385,0.38407832384109497,0.4719395935535431,0.94,0.84,0.0007937005259840996
386,0.3839040696620941,0.4720514416694641,0.94,0.84,0.0007937005259840996
387,0.3837284743785858,0.4722343683242798,0.94,0.84,0.0007937005259840996
388,0.3835548460483551,0.47244793176651,0.94,0.84,0.0007937005259840996
389,0.38338133692741394,0.47272732853889465,0.94,0.84,0.0007937005259840996
390,0.383208304643631,0.47309669852256775,0.94,0.84,0.0007937005259840996
391,0.38303837180137634,0.4732770621776581,0.94,0.83,0.0007937005259840996
392,0.38286668062210083,0.47355198860168457,0.94,0.83,0.0007937005259840996
393,0.3826977610588074,0.4739162027835846,0.94,0.83,0.0007937005259840996
394,0.38252997398376465,0.4743371307849884,0.94,0.83,0.0007937005259840996
395,0.3823626637458801,0.4747370481491089,0.94,0.83,0.0007937005259840996
396,0.38219842314720154,0.47497978806495667,0.94,0.83,0.0007937005259840996
397,0.3820328116416931,0.47537463903427124,0.94,0.83,0.0007937005259840996
398,0.3818694055080414,0.4758010804653168,0.94,0.83,0.0007937005259840996
399,0.3817060887813568,0.47617772221565247,0.94,0.83,0.0007937005259840996
400,0.3815431296825409,0.47643718123435974,0.94,0.83,0.0007937005259840996
401,0.38137736916542053,0.47660791873931885,0.94,0.83,0.0007937005259840996
402,0.38120976090431213,0.47692257165908813,0.94,0.83,0.0007937005259840996
403,0.38103732466697693,0.4770951569080353,0.94,0.83,0.0007937005259840996
404,0.3808556795120239,0.47716817259788513,0.94,0.83,0.0007937005259840996
405,0.38066014647483826,0.47710198163986206,0.94,0.84,0.0007937005259840996
406,0.38043808937072754,0.4771256744861603,0.94,0.84,0.0007937005259840996
407,0.38016921281814575,0.4769798219203949,0.94,0.84,0.0007937005259840996
408,0.3798145353794098,0.47666728496551514,0.94,0.84,0.0007937005259840996
409,0.37929368019104004,0.47618794441223145,0.94,0.84,0.0007937005259840996
410,0.3784562647342682,0.4756273031234741,0.94,0.84,0.0007937005259840996
411,0.37714987993240356,0.47526082396507263,0.94,0.84,0.0007937005259840996
412,0.3753783106803894,0.4747112989425659,0.95,0.84,0.0007937005259840996
413,0.3772965967655182,0.5155619382858276,0.94,0.79,0.0007937005259840996
414,0.4376295506954193,0.5122156143188477,0.87,0.79,0.0007937005259840996
415,0.4530268907546997,0.5072485208511353,0.85,0.8,0.0007937005259840996
416,0.4436866343021393,0.49159756302833557,0.86,0.82,0.0007937005259840996
417,0.4083561599254608,0.5362790822982788,0.9,0.78,0.0007937005259840996
418,0.4644397497177124,0.5684953331947327,0.84,0.73,0.0007937005259840996
419,0.4903944134712219,0.5644388794898987,0.82,0.74,0.0007937005259840996
420,0.4914599359035492,0.5357896089553833,0.81,0.78,0.0007937005259840996
421,0.4802882671356201,0.4876432418823242,0.82,0.83,0.0007937005259840996
422,0.40944892168045044,0.4862390160560608,0.88,0.83,0.0007937005259840996
423,0.43239638209342957,0.5193727016448975,0.87,0.78,0.0007937005259840996
424,0.48392191529273987,0.563358724117279,0.82,0.74,0.0007937005259840996
425,0.5122072696685791,0.5954992771148682,0.79,0.72,0.0007937005259840996
426,0.5882501006126404,0.5905376672744751,0.69,0.71,0.0007937005259840996
427,0.5286292433738708,0.5587989687919617,0.77,0.74,0.0007937005259840996
428,0.4968327283859253,0.4883073568344116,0.81,0.82,0.0007937005259840996
429,0.4611469507217407,0.47900429368019104,0.84,0.83,0.0007937005259840996
430,0.4178756773471832,0.48257938027381897,0.89,0.83,0.0007937005259840996
431,0.4092938303947449,0.5320265889167786,0.89,0.77,0.0007937005259840996
432,0.4289478361606598,0.6037551164627075,0.89,0.71,0.0007937005259840996
433,0.4768529236316681,0.624303936958313,0.83,0.68,0.0007937005259840996
434,0.5213481783866882,0.6116942167282104,0.8,0.7,0.0007937005259840996
435,0.4617826044559479,0.5686318278312683,0.85,0.75,0.0007937005259840996
436,0.44019415974617004,0.5155524611473083,0.88,0.79,0.0007937005259840996
437,0.42711737751960754,0.49701422452926636,0.88,0.81,0.0007937005259840996
438,0.4370415210723877,0.4904133081436157,0.87,0.82,0.0007937005259840996
439,0.4409271478652954,0.49821606278419495,0.87,0.81,0.0007937005259840996
440,0.44104960560798645,0.4993261396884918,0.86,0.8,0.0007937005259840996
441,0.4563303291797638,0.49885720014572144,0.86,0.8,0.0007937005259840996
442,0.4566565454006195,0.49841201305389404,0.85,0.81,0.0007937005259840996
443,0.45623916387557983,0.4981596767902374,0.85,0.8,0.0007937005259840996
444,0.45530441403388977,0.4907216727733612,0.85,0.82,0.0007937005259840996
445,0.45030349493026733,0.4871194362640381,0.86,0.82,0.0007937005259840996
446,0.4443083703517914,0.4876743257045746,0.87,0.82,0.0007937005259840996
447,0.4399843215942383,0.48790812492370605,0.87,0.83,0.0007937005259840996
448,0.43040674924850464,0.49632319808006287,0.88,0.81,0.0007937005259840996
449,0.41976168751716614,0.5159047245979309,0.9,0.79,0.0007937005259840996
450,0.41990089416503906,0.5369541049003601,0.89,0.76,0.0007937005259840996
451,0.41385066509246826,0.5478988885879517,0.89,0.75,0.0007937005259840996
452,0.415619432926178,0.5440417528152466,0.91,0.75,0.0007937005259840996
453,0.4146954417228699,0.5275895595550537,0.91,0.77,0.0007937005259840996
454,0.41184207797050476,0.5080215930938721,0.91,0.8,0.0007937005259840996
455,0.4080784320831299,0.4975816309452057,0.91,0.81,0.0007937005259840996
456,0.41419899463653564,0.4914320409297943,0.9,0.82,0.0007937005259840996
457,0.40868332982063293,0.485619455575943,0.9,0.82,0.0007937005259840996
458,0.4129588305950165,0.48200660943984985,0.9,0.83,0.0007937005259840996
459,0.413480669260025,0.4804838299751282,0.9,0.83,0.0007937005259840996
460,0.4132409989833832,0.4799240231513977,0.9,0.83,0.0007937005259840996
461,0.41308727860450745,0.48001906275749207,0.9,0.83,0.0007937005259840996
462,0.4120473861694336,0.48112186789512634,0.9,0.83,0.0007937005259840996
463,0.40472811460494995,0.4842470586299896,0.91,0.83,0.0007937005259840996
464,0.40286722779273987,0.48932239413261414,0.91,0.82,0.0007937005259840996
465,0.40300723910331726,0.4942708909511566,0.92,0.81,0.0007937005259840996
466,0.3933408856391907,0.49746906757354736,0.92,0.82,0.0007937005259840996
467,0.3935815393924713,0.49916917085647583,0.92,0.81,0.0007937005259840996
468,0.39367473125457764,0.4996568262577057,0.92,0.81,0.0007937005259840996
469,0.39358511567115784,0.4987631142139435,0.92,0.81,0.0007937005259840996
470,0.3932283818721771,0.49559539556503296,0.92,0.81,0.0007937005259840996
471,0.3924812078475952,0.49026408791542053,0.92,0.81,0.0007937005259840996
472,0.3914377987384796,0.485382080078125,0.92,0.84,0.0007937005259840996
473,0.3904212713241577,0.4825288653373718,0.93,0.84,0.0007937005259840996
474,0.3896862268447876,0.4809857904911041,0.93,0.83,0.0007937005259840996
475,0.3893432319164276,0.4800834655761719,0.93,0.83,0.0007937005259840996
476,0.39488452672958374,0.5104076266288757,0.92,0.8,0.0007937005259840996
477,0.40046024322509766,0.5833261013031006,0.91,0.71,0.0007937005259840996
478,0.4514014422893524,0.6373001337051392,0.87,0.67,0.0007937005259840996
479,0.632524311542511,0.610923707485199,0.68,0.7,0.0007937005259840996
480,0.5033519864082336,0.4924275875091553,0.79,0.81,0.0007937005259840996
481,0.4198816418647766,0.4998237192630768,0.9,0.81,0.0007937005259840996
482,0.43328553438186646,0.5445574522018433,0.88,0.76,0.0007937005259840996
483,0.507443368434906,0.5892903804779053,0.8,0.72,0.0007937005259840996
484,0.5326383709907532,0.5819399356842041,0.78,0.72,0.0007937005259840996
485,0.5422747731208801,0.5791763067245483,0.76,0.72,0.0007937005259840996
486,0.5453519821166992,0.5797520279884338,0.76,0.73,0.0007937005259840996
487,0.5341829061508179,0.5840088129043579,0.77,0.72,0.0007937005259840996
488,0.536476731300354,0.5860143303871155,0.77,0.71,0.0007937005259840996
489,0.5372176766395569,0.5864992141723633,0.76,0.71,0.0007937005259840996
490,0.536893367767334,0.5858525633811951,0.76,0.71,0.0007937005259840996
491,0.5356489419937134,0.5831855535507202,0.76,0.72,0.0007937005259840996
492,0.5332785248756409,0.5775035619735718,0.77,0.73,0.0007937005259840996
493,0.5303810834884644,0.5707598328590393,0.78,0.73,0.0007937005259840996
494,0.5292173027992249,0.5656182169914246,0.78,0.74,0.0007937005259840996
495,0.5295162796974182,0.5635645985603333,0.77,0.74,0.0007937005259840996
496,0.5296432375907898,0.5640509128570557,0.77,0.73,0.0007937005259840996
497,0.5290979743003845,0.5632113218307495,0.77,0.74,0.0007937005259840996
498,0.5274175405502319,0.558897078037262,0.77,0.75,0.0007937005259840996
499,0.5236773490905762,0.5615737438201904,0.79,0.74,0.0007937005259840996
500,0.5177964568138123,0.5616052746772766,0.79,0.75,0.0007937005259840996
501,0.5205643177032471,0.5611110925674438,0.79,0.75,0.0007937005259840996
502,0.5059351921081543,0.5594721436500549,0.8,0.75,0.0007937005259840996
503,0.4992612898349762,0.5572099089622498,0.81,0.76,0.0007937005259840996
504,0.5025641918182373,0.5571422576904297,0.8,0.76,0.0007937005259840996
505,0.5010417699813843,0.5590664148330688,0.81,0.75,0.0007937005259840996
506,0.5005691647529602,0.5615121722221375,0.82,0.74,0.0007937005259840996
507,0.5006440877914429,0.5628530979156494,0.83,0.74,0.0007937005259840996
508,0.49996012449264526,0.5629605650901794,0.83,0.74,0.0007937005259840996
509,0.49900737404823303,0.562575101852417,0.83,0.74,0.0007937005259840996
510,0.4983435571193695,0.562431812286377,0.82,0.76,0.0007937005259840996
511,0.4958701431751251,0.54270339012146,0.82,0.78,0.0007937005259840996
512,0.4788800776004791,0.5346203446388245,0.84,0.79,0.0007937005259840996
513,0.47827738523483276,0.5314115285873413,0.83,0.77,0.0006299605249474364
514,0.4627944231033325,0.5269064903259277,0.84,0.78,0.0006299605249474364
515,0.4508289694786072,0.5260149240493774,0.86,0.78,0.0006299605249474364
516,0.44493111968040466,0.5292259454727173,0.86,0.78,0.0006299605249474364
517,0.43271592259407043,0.5294007658958435,0.88,0.78,0.0006299605249474364
518,0.42549189925193787,0.5383599996566772,0.89,0.77,0.0006299605249474364
519,0.4336872100830078,0.5353208184242249,0.88,0.78,0.0006299605249474364
520,0.4344235360622406,0.527057409286499,0.88,0.79,0.0006299605249474364
521,0.4341091513633728,0.526512861251831,0.88,0.78,0.0006299605249474364
522,0.4338569939136505,0.5265213847160339,0.88,0.78,0.0006299605249474364
523,0.43504786491394043,0.5234400033950806,0.89,0.78,0.0006299605249474364
524,0.4346071183681488,0.516769528388977,0.89,0.8,0.0006299605249474364
525,0.43096601963043213,0.5150057673454285,0.89,0.8,0.0006299605249474364
526,0.4304114580154419,0.5116623044013977,0.88,0.79,0.0006299605249474364
527,0.43013229966163635,0.5081160068511963,0.88,0.8,0.0006299605249474364
528,0.4294787645339966,0.5045368671417236,0.88,0.8,0.0006299605249474364
529,0.42713218927383423,0.49995601177215576,0.88,0.81,0.0006299605249474364
530,0.42052730917930603,0.4949871897697449,0.89,0.81,0.0006299605249474364
531,0.4097297787666321,0.4919445812702179,0.9,0.82,0.0006299605249474364
532,0.4180538058280945,0.49408382177352905,0.9,0.83,0.0006299605249474364
533,0.4176349937915802,0.4984458088874817,0.9,0.82,0.0006299605249474364
534,0.4214663803577423,0.5021950006484985,0.89,0.82,0.0006299605249474364
535,0.4173074960708618,0.5153646469116211,0.9,0.79,0.0006299605249474364
536,0.4174541234970093,0.5131045579910278,0.9,0.8,0.0006299605249474364
537,0.41609546542167664,0.5154524445533752,0.9,0.79,0.0006299605249474364
538,0.40822258591651917,0.517939567565918,0.9,0.78,0.0006299605249474364
539,0.4082564115524292,0.5204554200172424,0.9,0.78,0.0006299605249474364
540,0.4083336591720581,0.5219541788101196,0.9,0.79,0.0006299605249474364
541,0.40855416655540466,0.5223625302314758,0.9,0.79,0.0006299605249474364
542,0.4088427722454071,0.5219004154205322,0.91,0.8,0.0006299605249474364
543,0.4088095426559448,0.5205672979354858,0.91,0.8,0.0006299605249474364
544,0.40829047560691833,0.5182268619537354,0.91,0.8,0.0006299605249474364
545,0.4076254367828369,0.5150997638702393,0.91,0.8,0.0006299605249474364
546,0.40713027119636536,0.5124038457870483,0.91,0.81,0.0006299605249474364
547,0.4068211019039154,0.5107743144035339,0.91,0.81,0.0006299605249474364
548,0.4066198766231537,0.5098838210105896,0.91,0.81,0.0006299605249474364
549,0.4064582586288452,0.5093763470649719,0.91,0.81,0.0006299605249474364
550,0.4063147008419037,0.5090677738189697,0.91,0.81,0.0006299605249474364
551,0.4061833918094635,0.5088684558868408,0.91,0.81,0.0006299605249474364
552,0.4060642123222351,0.5087278485298157,0.91,0.81,0.0006299605249474364
553,0.40596044063568115,0.5086309313774109,0.91,0.81,0.0006299605249474364
554,0.4058612883090973,0.508568286895752,0.91,0.81,0.0006299605249474364
555,0.40575259923934937,0.5085293054580688,0.91,0.81,0.0006299605249474364
556,0.40561869740486145,0.5085005760192871,0.91,0.81,0.0006299605249474364
557,0.4054478108882904,0.5084636211395264,0.91,0.81,0.0006299605249474364
558,0.40524643659591675,0.5084072351455688,0.91,0.81,0.0006299605249474364
559,0.40502074360847473,0.5083306431770325,0.91,0.81,0.0006299605249474364
560,0.40479010343551636,0.508237898349762,0.91,0.81,0.0006299605249474364
561,0.40456753969192505,0.5081375241279602,0.91,0.81,0.0006299605249474364
562,0.4043603837490082,0.5080346465110779,0.91,0.81,0.0006299605249474364
563,0.404170423746109,0.5079392194747925,0.91,0.81,0.0006299605249474364
564,0.40399330854415894,0.5078507661819458,0.91,0.81,0.0006299605249474364
565,0.4038209617137909,0.5077735781669617,0.91,0.81,0.0006299605249474364
566,0.40364697575569153,0.5077103972434998,0.91,0.81,0.0006299605249474364
567,0.40346816182136536,0.5076685547828674,0.91,0.81,0.0006299605249474364
568,0.40328097343444824,0.5076537728309631,0.91,0.81,0.0006299605249474364
569,0.40308988094329834,0.507697582244873,0.91,0.8,0.0006299605249474364
570,0.40289506316185,0.5078279376029968,0.91,0.8,0.0006299605249474364
571,0.4027029871940613,0.508119523525238,0.92,0.8,0.0006299605249474364
572,0.40251368284225464,0.5086872577667236,0.92,0.8,0.0006299605249474364
573,0.4023244380950928,0.5094441771507263,0.92,0.8,0.0006299605249474364
574,0.40213334560394287,0.5102572441101074,0.92,0.8,0.0006299605249474364
575,0.40193772315979004,0.5110876560211182,0.92,0.79,0.0006299605249474364
576,0.4017389416694641,0.5117096900939941,0.92,0.79,0.0006299605249474364
577,0.40154126286506653,0.5121599435806274,0.92,0.79,0.0006299605249474364
578,0.40134549140930176,0.5125609040260315,0.92,0.79,0.0006299605249474364
579,0.4011542499065399,0.512967586517334,0.92,0.79,0.0006299605249474364
580,0.40096771717071533,0.513384222984314,0.92,0.79,0.0006299605249474364
581,0.4007803797721863,0.5137693285942078,0.92,0.79,0.0006299605249474364
582,0.4005942642688751,0.514106810092926,0.92,0.79,0.0006299605249474364
583,0.4004063010215759,0.5143366456031799,0.92,0.79,0.0006299605249474364
584,0.4002184271812439,0.5144729614257812,0.92,0.79,0.0006299605249474364
585,0.400031179189682,0.5145435929298401,0.92,0.79,0.0006299605249474364
586,0.3998454809188843,0.5145519375801086,0.92,0.79,0.0006299605249474364
587,0.39966025948524475,0.5145350098609924,0.92,0.79,0.0006299605249474364
588,0.39947089552879333,0.5144994258880615,0.92,0.79,0.0006299605249474364
589,0.39928051829338074,0.5144612193107605,0.92,0.79,0.0006299605249474364
590,0.399088978767395,0.5144298672676086,0.92,0.79,0.0006299605249474364
591,0.39889657497406006,0.5144082903862,0.92,0.79,0.0006299605249474364
592,0.39870521426200867,0.5144084692001343,0.92,0.79,0.0006299605249474364
593,0.3985137641429901,0.514421820640564,0.92,0.79,0.0006299605249474364
594,0.3983210027217865,0.5144528150558472,0.92,0.79,0.0006299605249474364
595,0.3981265127658844,0.5144917964935303,0.92,0.79,0.0006299605249474364
596,0.3979341983795166,0.5145354270935059,0.92,0.79,0.0006299605249474364
597,0.39774090051651,0.5145821571350098,0.92,0.79,0.0006299605249474364
598,0.39754927158355713,0.5146247744560242,0.93,0.79,0.0006299605249474364
599,0.39735645055770874,0.5146647691726685,0.93,0.79,0.0006299605249474364
600,0.39716485142707825,0.5147019028663635,0.93,0.79,0.0006299605249474364
601,0.39697274565696716,0.5147334933280945,0.93,0.79,0.0006299605249474364
602,0.3967820703983307,0.514766275882721,0.93,0.79,0.0006299605249474364
603,0.39659059047698975,0.5147992372512817,0.93,0.79,0.0006299605249474364
604,0.39639973640441895,0.5148329734802246,0.93,0.79,0.0006299605249474364
605,0.396209180355072,0.514865517616272,0.93,0.79,0.0006299605249474364
606,0.39601707458496094,0.5148875713348389,0.93,0.79,0.0006299605249474364
607,0.39582547545433044,0.5149025917053223,0.93,0.79,0.0006299605249474364
608,0.3956338167190552,0.514908492565155,0.93,0.79,0.0006299605249474364
609,0.3954440951347351,0.5149012207984924,0.93,0.8,0.0006299605249474364
610,0.39525237679481506,0.5148738622665405,0.93,0.8,0.0006299605249474364
611,0.39506158232688904,0.5148426294326782,0.93,0.8,0.0006299605249474364
612,0.39487066864967346,0.5148099064826965,0.93,0.8,0.0006299605249474364
613,0.39468181133270264,0.5147657990455627,0.93,0.8,0.0006299605249474364
614,0.3944932520389557,0.5147251486778259,0.93,0.8,0.0004999999999999997
615,0.39430224895477295,0.5146927833557129,0.93,0.8,0.0004999999999999997
616,0.39415252208709717,0.5146547555923462,0.93,0.8,0.0004999999999999997
617,0.3940028250217438,0.5146129727363586,0.93,0.8,0.0004999999999999997
618,0.3938538730144501,0.5145667195320129,0.93,0.8,0.0004999999999999997
619,0.39370399713516235,0.5145169496536255,0.93,0.8,0.0004999999999999997
620,0.39355525374412537,0.5144594311714172,0.93,0.8,0.0004999999999999997
621,0.3934054672718048,0.5144076347351074,0.93,0.8,0.0004999999999999997
622,0.39325618743896484,0.5143598914146423,0.93,0.8,0.0004999999999999997
623,0.3931075632572174,0.5143216848373413,0.93,0.8,0.0004999999999999997
624,0.39295899868011475,0.5142853260040283,0.93,0.8,0.0004999999999999997
625,0.3928113579750061,0.5142539143562317,0.93,0.8,0.0004999999999999997
626,0.3926630914211273,0.5142198204994202,0.93,0.8,0.0004999999999999997
627,0.3925158381462097,0.5141791105270386,0.93,0.8,0.0004999999999999997
628,0.3923685550689697,0.5141417384147644,0.93,0.8,0.0004999999999999997
629,0.3922220468521118,0.5141115784645081,0.93,0.8,0.0004999999999999997
630,0.3920759856700897,0.5140748023986816,0.93,0.8,0.0004999999999999997
631,0.39193055033683777,0.5140495896339417,0.93,0.8,0.0004999999999999997
632,0.3917841613292694,0.5140160918235779,0.93,0.8,0.0004999999999999997
633,0.3916393518447876,0.5139939785003662,0.93,0.8,0.0004999999999999997
634,0.391494482755661,0.5139645934104919,0.93,0.8,0.0004999999999999997
635,0.3913511633872986,0.5139331221580505,0.93,0.8,0.0004999999999999997
636,0.3912074565887451,0.5138950347900391,0.93,0.8,0.0004999999999999997
637,0.3910644054412842,0.5138503313064575,0.93,0.8,0.0004999999999999997
638,0.3909218907356262,0.5138049125671387,0.93,0.8,0.0004999999999999997
639,0.39078113436698914,0.5137547850608826,0.93,0.8,0.0004999999999999997
640,0.39064013957977295,0.5136986374855042,0.93,0.8,0.0004999999999999997
641,0.3904992640018463,0.5136309862136841,0.93,0.8,0.0004999999999999997
642,0.3903604745864868,0.5134744048118591,0.93,0.8,0.0004999999999999997
643,0.3902220129966736,0.5130462646484375,0.93,0.8,0.0004999999999999997
644,0.39008376002311707,0.5117642879486084,0.93,0.8,0.0004999999999999997
645,0.3899472951889038,0.5090214610099792,0.93,0.8,0.0004999999999999997
646,0.38981202244758606,0.5059094429016113,0.93,0.8,0.0004999999999999997
647,0.3896772861480713,0.5042921900749207,0.93,0.8,0.0004999999999999997
648,0.38954412937164307,0.5035088658332825,0.93,0.8,0.0004999999999999997
649,0.38941246271133423,0.5031583309173584,0.93,0.8,0.0004999999999999997
650,0.3892819285392761,0.5029265880584717,0.93,0.8,0.0004999999999999997
651,0.3891530930995941,0.5027378797531128,0.93,0.8,0.0004999999999999997
652,0.38902610540390015,0.5025660395622253,0.93,0.8,0.0004999999999999997
653,0.3889004588127136,0.5023964643478394,0.93,0.8,0.0004999999999999997
654,0.3887764811515808,0.5022237300872803,0.93,0.8,0.0004999999999999997
655,0.38865500688552856,0.5020180344581604,0.93,0.8,0.0004999999999999997
656,0.38853567838668823,0.5018130540847778,0.93,0.8,0.0004999999999999997
657,0.38841792941093445,0.5015961527824402,0.93,0.8,0.0004999999999999997
658,0.3883027136325836,0.501371443271637,0.93,0.8,0.0004999999999999997
659,0.3881899118423462,0.5011675357818604,0.93,0.8,0.0004999999999999997
660,0.38807934522628784,0.5009525418281555,0.93,0.8,0.0004999999999999997
661,0.38797229528427124,0.5007069110870361,0.93,0.8,0.0004999999999999997
662,0.38786640763282776,0.5004819631576538,0.93,0.81,0.0004999999999999997
663,0.3877640664577484,0.5002638697624207,0.93,0.81,0.0004999999999999997
664,0.38766366243362427,0.5000549554824829,0.93,0.81,0.0004999999999999997
665,0.3875666856765747,0.4998236894607544,0.93,0.81,0.0004999999999999997
666,0.38747093081474304,0.4996265470981598,0.93,0.81,0.0004999999999999997
667,0.38737744092941284,0.4994162619113922,0.93,0.81,0.0004999999999999997
668,0.38728654384613037,0.49920594692230225,0.93,0.81,0.0004999999999999997
669,0.38719630241394043,0.4989805221557617,0.93,0.81,0.0004999999999999997
670,0.38710635900497437,0.4987688362598419,0.93,0.81,0.0004999999999999997
671,0.38701561093330383,0.49855098128318787,0.93,0.81,0.0004999999999999997
672,0.3869217336177826,0.49830013513565063,0.93,0.81,0.0004999999999999997
673,0.3868177533149719,0.4980246424674988,0.93,0.81,0.0004999999999999997
674,0.3866923451423645,0.49771249294281006,0.93,0.81,0.0004999999999999997
675,0.3865099847316742,0.49712443351745605,0.93,0.81,0.0004999999999999997
676,0.38613077998161316,0.4937294125556946,0.93,0.81,0.0004999999999999997
677,0.38472938537597656,0.4861249029636383,0.93,0.82,0.0004999999999999997
678,0.3788118362426758,0.4866466820240021,0.94,0.83,0.0004999999999999997
679,0.3772311508655548,0.49218451976776123,0.94,0.82,0.0004999999999999997
680,0.37761837244033813,0.4924800992012024,0.94,0.82,0.0004999999999999997
681,0.377975732088089,0.48522311449050903,0.94,0.83,0.0004999999999999997
682,0.3783678114414215,0.48270297050476074,0.94,0.83,0.0004999999999999997
683,0.37781822681427,0.47563621401786804,0.94,0.84,0.0004999999999999997
684,0.3772610127925873,0.472442626953125,0.94,0.84,0.0004999999999999997
685,0.3766270577907562,0.4705716371536255,0.94,0.84,0.0004999999999999997
686,0.37634238600730896,0.4688045382499695,0.94,0.84,0.0004999999999999997
687,0.3766498565673828,0.47514763474464417,0.94,0.84,0.0004999999999999997
688,0.3768270015716553,0.47516411542892456,0.94,0.84,0.0004999999999999997
689,0.3772220313549042,0.47229504585266113,0.94,0.84,0.0004999999999999997
690,0.3760460913181305,0.46620801091194153,0.94,0.84,0.0004999999999999997
691,0.377280592918396,0.47560831904411316,0.94,0.84,0.0004999999999999997
692,0.37604671716690063,0.47819897532463074,0.94,0.84,0.0004999999999999997
693,0.37046006321907043,0.4790268838405609,0.95,0.83,0.0004999999999999997
694,0.3676122725009918,0.47489166259765625,0.95,0.83,0.0004999999999999997
695,0.3680342435836792,0.47861427068710327,0.95,0.83,0.0004999999999999997
696,0.37088608741760254,0.47919896245002747,0.95,0.83,0.0004999999999999997
697,0.3688778579235077,0.480411171913147,0.95,0.83,0.0004999999999999997
698,0.368416965007782,0.47710850834846497,0.95,0.83,0.0004999999999999997
699,0.3661714792251587,0.473682701587677,0.95,0.83,0.0004999999999999997
700,0.36606070399284363,0.4717335104942322,0.95,0.85,0.0004999999999999997
701,0.3669426739215851,0.47041112184524536,0.95,0.84,0.0004999999999999997
702,0.36629870533943176,0.4707210958003998,0.95,0.84,0.0004999999999999997
703,0.36628541350364685,0.47091761231422424,0.95,0.84,0.0004999999999999997
704,0.3666030466556549,0.4696851968765259,0.95,0.84,0.0004999999999999997
705,0.36606869101524353,0.4693652093410492,0.95,0.85,0.0004999999999999997
706,0.3659682869911194,0.4678441882133484,0.95,0.85,0.0004999999999999997
707,0.36625903844833374,0.46606385707855225,0.95,0.85,0.0004999999999999997
708,0.3660024404525757,0.46750596165657043,0.95,0.84,0.0004999999999999997
709,0.36572420597076416,0.46887946128845215,0.95,0.84,0.0004999999999999997
710,0.365829735994339,0.4676889181137085,0.95,0.84,0.0004999999999999997
711,0.36585429310798645,0.46171310544013977,0.95,0.85,0.0004999999999999997
712,0.3656294345855713,0.46032559871673584,0.95,0.85,0.0004999999999999997
713,0.36552855372428894,0.4604712426662445,0.95,0.85,0.0004999999999999997
714,0.3655264675617218,0.46079376339912415,0.95,0.86,0.0004999999999999997
715,0.3652767539024353,0.461289644241333,0.95,0.86,0.0004999999999999997
716,0.36365020275115967,0.46543174982070923,0.95,0.85,0.0004999999999999997
717,0.3709137439727783,0.48258715867996216,0.95,0.83,0.0004999999999999997
718,0.3767634332180023,0.48202788829803467,0.94,0.83,0.0004999999999999997
719,0.376577228307724,0.48095420002937317,0.94,0.83,0.0004999999999999997
720,0.3660546541213989,0.48102691769599915,0.95,0.84,0.0004999999999999997
721,0.3672730624675751,0.4893052279949188,0.95,0.82,0.0004999999999999997
722,0.3844022750854492,0.48697802424430847,0.93,0.82,0.0004999999999999997
723,0.3822653889656067,0.47700223326683044,0.93,0.84,0.0004999999999999997
724,0.3771201968193054,0.4791346788406372,0.94,0.82,0.0004999999999999997
725,0.37850409746170044,0.4809792637825012,0.94,0.82,0.0004999999999999997
726,0.38025128841400146,0.4783596396446228,0.94,0.82,0.0004999999999999997
727,0.37652966380119324,0.4682036340236664,0.94,0.85,0.0004999999999999997
728,0.37648093700408936,0.46956363320350647,0.94,0.85,0.0004999999999999997
729,0.37739425897598267,0.4713803827762604,0.94,0.85,0.0004999999999999997
730,0.3778854310512543,0.4705420732498169,0.94,0.85,0.0004999999999999997
731,0.3769572973251343,0.48135045170783997,0.94,0.84,0.0004999999999999997
732,0.376169353723526,0.48550841212272644,0.94,0.82,0.0004999999999999997
733,0.3760090172290802,0.4891805946826935,0.94,0.82,0.0004999999999999997
734,0.3763498067855835,0.4908643364906311,0.94,0.82,0.0004999999999999997
735,0.37685853242874146,0.49161624908447266,0.94,0.82,0.0004999999999999997
736,0.3770374059677124,0.49193015694618225,0.94,0.82,0.0004999999999999997
737,0.3767637610435486,0.4916003346443176,0.94,0.82,0.0004999999999999997
738,0.376382052898407,0.49028196930885315,0.94,0.81,0.0004999999999999997
739,0.37621310353279114,0.48847725987434387,0.94,0.81,0.0004999999999999997
740,0.3763047754764557,0.48732295632362366,0.94,0.83,0.0004999999999999997
741,0.3765439987182617,0.4870046377182007,0.94,0.83,0.0004999999999999997
742,0.376664400100708,0.4872623682022095,0.94,0.83,0.0004999999999999997
743,0.37650835514068604,0.4882136881351471,0.94,0.82,0.0004999999999999997
744,0.37624308466911316,0.4897177815437317,0.94,0.81,0.0004999999999999997
745,0.3760460615158081,0.4910390079021454,0.94,0.81,0.0004999999999999997
746,0.3759874105453491,0.4916948676109314,0.94,0.82,0.0004999999999999997
747,0.37603116035461426,0.49173882603645325,0.94,0.82,0.0004999999999999997
748,0.3760772943496704,0.4913906455039978,0.94,0.82,0.0004999999999999997
749,0.3760346472263336,0.4906562566757202,0.94,0.82,0.0004999999999999997
750,0.3759070932865143,0.48948439955711365,0.94,0.82,0.0004999999999999997
751,0.3757743835449219,0.4879800081253052,0.94,0.82,0.0004999999999999997
752,0.37569838762283325,0.4864254891872406,0.94,0.82,0.0004999999999999997
753,0.3756873607635498,0.4852008521556854,0.94,0.83,0.0004999999999999997
754,0.375705748796463,0.4844224452972412,0.94,0.83,0.0004999999999999997
755,0.37570834159851074,0.48407822847366333,0.94,0.83,0.0004999999999999997
756,0.3756707012653351,0.4841291904449463,0.94,0.83,0.0004999999999999997
757,0.3756031095981598,0.4845273494720459,0.94,0.83,0.0004999999999999997
758,0.3755311965942383,0.4850933849811554,0.94,0.82,0.0004999999999999997
759,0.3754843771457672,0.4856148660182953,0.94,0.82,0.0004999999999999997
760,0.3754671514034271,0.4859248697757721,0.94,0.82,0.0004999999999999997
761,0.37546470761299133,0.4859450161457062,0.94,0.82,0.0004999999999999997
762,0.3754536807537079,0.48562294244766235,0.94,0.82,0.0004999999999999997
763,0.3754195272922516,0.48502662777900696,0.94,0.82,0.0004999999999999997
764,0.3753713369369507,0.48425838351249695,0.94,0.83,0.0004999999999999997
765,0.37532562017440796,0.4834253787994385,0.94,0.83,0.0004999999999999997
766,0.3752938508987427,0.4827108383178711,0.94,0.83,0.0004999999999999997
767,0.3752763867378235,0.4821973145008087,0.94,0.83,0.0004999999999999997
768,0.37526407837867737,0.48189640045166016,0.94,0.83,0.0004999999999999997
769,0.3752455413341522,0.48181748390197754,0.94,0.83,0.0004999999999999997
770,0.37521862983703613,0.48191341757774353,0.94,0.83,0.0004999999999999997
771,0.3751847743988037,0.4821132719516754,0.94,0.83,0.0004999999999999997
772,0.37515389919281006,0.48232966661453247,0.94,0.83,0.0004999999999999997
773,0.3751290440559387,0.4825003743171692,0.94,0.83,0.0004999999999999997
774,0.37511128187179565,0.48254817724227905,0.94,0.83,0.0004999999999999997
775,0.37509602308273315,0.4824635684490204,0.94,0.83,0.0004999999999999997
776,0.3750787079334259,0.48224106431007385,0.94,0.83,0.0004999999999999997
777,0.3750566840171814,0.481909841299057,0.94,0.83,0.0004999999999999997
778,0.37503165006637573,0.48152947425842285,0.94,0.83,0.0004999999999999997
779,0.3750079870223999,0.48113739490509033,0.94,0.83,0.0004999999999999997
780,0.37498828768730164,0.4807882308959961,0.94,0.83,0.0004999999999999997
781,0.374971479177475,0.48050808906555176,0.94,0.83,0.0004999999999999997
782,0.3749554455280304,0.4803197979927063,0.94,0.83,0.0004999999999999997
783,0.37493857741355896,0.48021891713142395,0.94,0.83,0.0004999999999999997
784,0.37491974234580994,0.4801792502403259,0.94,0.83,0.0004999999999999997
785,0.374900221824646,0.4801783263683319,0.94,0.83,0.0004999999999999997
786,0.3748806416988373,0.4801342487335205,0.94,0.83,0.0004999999999999997
787,0.3748639225959778,0.4800306558609009,0.94,0.83,0.0004999999999999997
788,0.37484848499298096,0.4797952175140381,0.94,0.83,0.0004999999999999997
789,0.37483376264572144,0.4792341887950897,0.94,0.83,0.0004999999999999997
790,0.3748182952404022,0.4779902398586273,0.94,0.83,0.0004999999999999997
791,0.37480223178863525,0.47569698095321655,0.94,0.83,0.0004999999999999997
792,0.37478578090667725,0.47262221574783325,0.94,0.84,0.0004999999999999997
793,0.37476977705955505,0.4708516299724579,0.94,0.84,0.0004999999999999997
794,0.3747548758983612,0.4698742628097534,0.94,0.84,0.0004999999999999997
795,0.3747407793998718,0.46952998638153076,0.94,0.84,0.0004999999999999997
796,0.37472695112228394,0.46934083104133606,0.94,0.84,0.0004999999999999997
797,0.3747134506702423,0.46923938393592834,0.94,0.84,0.0004999999999999997
798,0.37469908595085144,0.4691755771636963,0.94,0.84,0.0004999999999999997
799,0.374685138463974,0.46914124488830566,0.94,0.84,0.0004999999999999997
800,0.3746715188026428,0.46914100646972656,0.94,0.84,0.0004999999999999997
801,0.3746582865715027,0.469131201505661,0.94,0.84,0.0004999999999999997
802,0.37464573979377747,0.46910324692726135,0.94,0.84,0.0004999999999999997
803,0.3746331036090851,0.46905186772346497,0.94,0.84,0.0004999999999999997
804,0.37462085485458374,0.4689868688583374,0.94,0.84,0.0004999999999999997
805,0.37460848689079285,0.46890535950660706,0.94,0.84,0.0004999999999999997
806,0.3745959997177124,0.46883583068847656,0.94,0.84,0.0004999999999999997
807,0.37458324432373047,0.4687431752681732,0.94,0.84,0.0004999999999999997
808,0.3745718002319336,0.4686191976070404,0.94,0.84,0.0004999999999999997
809,0.37456032633781433,0.4684755206108093,0.94,0.84,0.0004999999999999997
810,0.37454935908317566,0.4683111608028412,0.94,0.84,0.0004999999999999997
811,0.374537855386734,0.46804484724998474,0.94,0.84,0.0004999999999999997
812,0.37452661991119385,0.46767425537109375,0.94,0.84,0.0004999999999999997
813,0.3745154142379761,0.46696707606315613,0.94,0.84,0.0004999999999999997
814,0.37450459599494934,0.4660467207431793,0.94,0.84,0.0004999999999999997
815,0.37449410557746887,0.46500179171562195,0.94,0.84,0.0004999999999999997
816,0.37448355555534363,0.4635178744792938,0.94,0.84,0.0004999999999999997
817,0.3744731843471527,0.46241703629493713,0.94,0.85,0.00039685026299204955
818,0.37446269392967224,0.46177560091018677,0.94,0.85,0.00039685026299204955
819,0.3744546175003052,0.4610369801521301,0.94,0.85,0.00039685026299204955
820,0.3744466006755829,0.4604685604572296,0.94,0.85,0.00039685026299204955
821,0.37443846464157104,0.4600716531276703,0.94,0.85,0.00039685026299204955
822,0.37443041801452637,0.4596669673919678,0.94,0.85,0.00039685026299204955
823,0.37442246079444885,0.45941272377967834,0.94,0.85,0.00039685026299204955
824,0.37441402673721313,0.459201455116272,0.94,0.85,0.00039685026299204955
825,0.37440481781959534,0.45904502272605896,0.94,0.85,0.00039685026299204955
826,0.37439197301864624,0.45896533131599426,0.94,0.85,0.00039685026299204955
827,0.3743495047092438,0.45917269587516785,0.94,0.85,0.00039685026299204955
828,0.3689699172973633,0.49086621403694153,0.94,0.82,0.00039685026299204955
829,0.4169173538684845,0.5714948177337646,0.89,0.74,0.00039685026299204955
830,0.44281139969825745,0.5832496285438538,0.87,0.73,0.00039685026299204955
831,0.5075526833534241,0.6069321036338806,0.8,0.71,0.00039685026299204955
832,0.5704445838928223,0.5958555936813354,0.74,0.72,0.00039685026299204955
833,0.5521944761276245,0.5869011282920837,0.76,0.71,0.00039685026299204955
834,0.5086880326271057,0.513679027557373,0.8,0.8,0.00039685026299204955
835,0.4182014763355255,0.5065045356750488,0.89,0.81,0.00039685026299204955
836,0.4305388629436493,0.5080700516700745,0.88,0.81,0.00039685026299204955
837,0.459297776222229,0.5121718049049377,0.85,0.8,0.00039685026299204955
838,0.48866409063339233,0.5245898365974426,0.82,0.77,0.00039685026299204955
839,0.5089386701583862,0.5338472723960876,0.8,0.77,0.00039685026299204955
840,0.5250696539878845,0.555666983127594,0.78,0.75,0.00039685026299204955
841,0.5319473147392273,0.5643365979194641,0.78,0.74,0.00039685026299204955
842,0.5231762528419495,0.5725042819976807,0.79,0.73,0.00039685026299204955
843,0.5146653652191162,0.5622631311416626,0.8,0.75,0.00039685026299204955
844,0.5132982134819031,0.5450623035430908,0.79,0.76,0.00039685026299204955
845,0.5091354250907898,0.5355145931243896,0.8,0.77,0.00039685026299204955
846,0.5033904910087585,0.5282105803489685,0.81,0.78,0.00039685026299204955
847,0.5022317171096802,0.5261406898498535,0.81,0.78,0.00039685026299204955
848,0.49253860116004944,0.5219051837921143,0.82,0.8,0.00039685026299204955
849,0.4884154498577118,0.5125059485435486,0.82,0.81,0.00039685026299204955
850,0.47373855113983154,0.5036295056343079,0.84,0.81,0.00039685026299204955
851,0.4635153114795685,0.5046840310096741,0.84,0.81,0.00039685026299204955
852,0.4411434233188629,0.49790602922439575,0.87,0.82,0.00039685026299204955
853,0.4339017868041992,0.5039342641830444,0.88,0.81,0.00039685026299204955
854,0.4079183340072632,0.5092922449111938,0.91,0.81,0.00039685026299204955
855,0.40471065044403076,0.5171288847923279,0.91,0.79,0.00039685026299204955
856,0.4089806079864502,0.52022385597229,0.91,0.79,0.00039685026299204955
857,0.4202841818332672,0.523880124092102,0.89,0.78,0.00039685026299204955
858,0.4212512969970703,0.5260701179504395,0.89,0.78,0.00039685026299204955
859,0.42137381434440613,0.5245736241340637,0.89,0.79,0.00039685026299204955
860,0.4209931194782257,0.5227323770523071,0.89,0.79,0.00039685026299204955
861,0.4194476008415222,0.5197357535362244,0.9,0.8,0.00039685026299204955
862,0.4127199649810791,0.5197002291679382,0.9,0.79,0.00039685026299204955
863,0.40834710001945496,0.5157533288002014,0.9,0.79,0.00039685026299204955
864,0.39602169394493103,0.5064825415611267,0.92,0.81,0.00039685026299204955
865,0.3933417499065399,0.5045605301856995,0.92,0.81,0.00039685026299204955
866,0.3907458186149597,0.5098313093185425,0.92,0.8,0.00039685026299204955
867,0.3893621563911438,0.5141628384590149,0.92,0.8,0.00039685026299204955
868,0.38760608434677124,0.5142017602920532,0.93,0.8,0.00039685026299204955
869,0.3818525969982147,0.5145193338394165,0.94,0.8,0.00039685026299204955
870,0.37902331352233887,0.5155238509178162,0.94,0.8,0.00039685026299204955
871,0.3778926432132721,0.5162257552146912,0.94,0.8,0.00039685026299204955
872,0.3760727345943451,0.5170281529426575,0.94,0.8,0.00039685026299204955
873,0.37587806582450867,0.5182739496231079,0.94,0.8,0.00039685026299204955
874,0.37555164098739624,0.5275739431381226,0.94,0.78,0.00039685026299204955
875,0.37519919872283936,0.528643786907196,0.94,0.78,0.00039685026299204955
876,0.37487781047821045,0.5286747217178345,0.94,0.78,0.00039685026299204955
877,0.37453949451446533,0.5284175872802734,0.94,0.78,0.00039685026299204955
878,0.3741599917411804,0.5279282927513123,0.94,0.78,0.00039685026299204955
879,0.3737439811229706,0.5272793173789978,0.94,0.78,0.00039685026299204955
880,0.37329837679862976,0.5265547633171082,0.94,0.79,0.00039685026299204955
881,0.3728383779525757,0.525806188583374,0.94,0.79,0.00039685026299204955
882,0.3723759949207306,0.5250697135925293,0.94,0.79,0.00039685026299204955
883,0.3719206750392914,0.5243818759918213,0.94,0.79,0.00039685026299204955
884,0.3714875876903534,0.5237405300140381,0.94,0.79,0.00039685026299204955
885,0.3710893392562866,0.5231500267982483,0.95,0.79,0.00039685026299204955
886,0.37076401710510254,0.5225958824157715,0.95,0.79,0.00039685026299204955
887,0.3706291615962982,0.522098183631897,0.95,0.79,0.00039685026299204955
888,0.37069714069366455,0.521690309047699,0.95,0.79,0.00039685026299204955
889,0.3700923025608063,0.5212773084640503,0.95,0.79,0.00039685026299204955
890,0.36981528997421265,0.5208579897880554,0.95,0.79,0.00039685026299204955
891,0.3696894347667694,0.5204631686210632,0.95,0.79,0.00039685026299204955
892,0.3695729076862335,0.5201191902160645,0.95,0.79,0.00039685026299204955
893,0.36941251158714294,0.5198445916175842,0.95,0.79,0.00039685026299204955
894,0.3692009747028351,0.5196605324745178,0.95,0.79,0.00039685026299204955
895,0.3689709007740021,0.5195701122283936,0.95,0.79,0.00039685026299204955
896,0.3687979578971863,0.5195371508598328,0.95,0.79,0.00039685026299204955
897,0.3686161935329437,0.5194947719573975,0.95,0.79,0.00039685026299204955
898,0.3683190941810608,0.5194737315177917,0.95,0.79,0.00039685026299204955
899,0.3681686818599701,0.5194450616836548,0.95,0.79,0.00039685026299204955
900,0.3680669665336609,0.5191181302070618,0.95,0.79,0.00039685026299204955
901,0.3679064214229584,0.516035258769989,0.95,0.79,0.00039685026299204955
902,0.36773234605789185,0.5109900832176208,0.95,0.8,0.00039685026299204955
903,0.3675931692123413,0.5096461772918701,0.95,0.8,0.00039685026299204955
904,0.36747172474861145,0.5094305276870728,0.95,0.8,0.00039685026299204955
905,0.36735451221466064,0.509387195110321,0.95,0.8,0.00039685026299204955
906,0.3672349452972412,0.50938880443573,0.95,0.8,0.00039685026299204955
907,0.36711350083351135,0.5094003081321716,0.95,0.8,0.00039685026299204955
908,0.36699536442756653,0.5094147324562073,0.95,0.8,0.00039685026299204955
909,0.36688071489334106,0.5094255208969116,0.95,0.8,0.00039685026299204955
910,0.366775780916214,0.5094195604324341,0.95,0.8,0.00039685026299204955
911,0.36667874455451965,0.5093994140625,0.95,0.8,0.00039685026299204955
912,0.36659014225006104,0.5093557834625244,0.95,0.8,0.00039685026299204955
913,0.36650335788726807,0.5092906355857849,0.95,0.8,0.00039685026299204955
914,0.36642077565193176,0.5091978907585144,0.95,0.8,0.00039685026299204955
915,0.36633679270744324,0.5090789198875427,0.95,0.8,0.00039685026299204955
916,0.3662523627281189,0.5089325904846191,0.95,0.8,0.00039685026299204955
917,0.3661700189113617,0.5087717771530151,0.95,0.8,0.00039685026299204955
918,0.3660895526409149,0.5085995197296143,0.95,0.8,0.00031498026247371797
919,0.36601483821868896,0.5084524750709534,0.95,0.8,0.00031498026247371797
920,0.3659559488296509,0.5083060264587402,0.95,0.8,0.00031498026247371797
921,0.3659004271030426,0.508154034614563,0.95,0.8,0.00031498026247371797
922,0.3658463656902313,0.5080035328865051,0.95,0.8,0.00031498026247371797
923,0.36579442024230957,0.5078527927398682,0.95,0.8,0.00031498026247371797
924,0.3657444715499878,0.5077018141746521,0.95,0.8,0.00031498026247371797
925,0.3656960725784302,0.507558286190033,0.95,0.8,0.00031498026247371797
926,0.3656492531299591,0.5074206590652466,0.95,0.8,0.00031498026247371797
927,0.3656037151813507,0.5072908997535706,0.95,0.8,0.00031498026247371797
928,0.3655605614185333,0.5071709752082825,0.95,0.81,0.00031498026247371797
929,0.3655169606208801,0.5070692896842957,0.95,0.81,0.00031498026247371797
930,0.36547496914863586,0.5069848299026489,0.95,0.81,0.00031498026247371797
931,0.36543190479278564,0.5069081783294678,0.95,0.81,0.00031498026247371797
932,0.3653888702392578,0.5068389773368835,0.95,0.81,0.00031498026247371797
933,0.3653468191623688,0.5067710280418396,0.95,0.81,0.00031498026247371797
934,0.36530545353889465,0.5067054033279419,0.95,0.81,0.00031498026247371797
935,0.3652653992176056,0.5066335797309875,0.95,0.81,0.00031498026247371797
936,0.3652273118495941,0.5065590143203735,0.95,0.81,0.00031498026247371797
937,0.36518964171409607,0.5064834356307983,0.95,0.81,0.00031498026247371797
938,0.3651531934738159,0.5063996315002441,0.95,0.81,0.00031498026247371797
939,0.36511677503585815,0.5063043236732483,0.95,0.81,0.00031498026247371797
940,0.3650810718536377,0.5062093734741211,0.95,0.81,0.00031498026247371797
941,0.3650464117527008,0.5061088800430298,0.95,0.81,0.00031498026247371797
942,0.3650120496749878,0.5060045719146729,0.95,0.81,0.00031498026247371797
943,0.36497920751571655,0.5058963298797607,0.95,0.81,0.00031498026247371797
944,0.3649479150772095,0.5057936310768127,0.95,0.81,0.00031498026247371797
945,0.3649178445339203,0.5056799054145813,0.95,0.81,0.00031498026247371797
946,0.3648882806301117,0.5055814981460571,0.95,0.81,0.00031498026247371797
947,0.3648611009120941,0.5054831504821777,0.95,0.81,0.00031498026247371797
948,0.364834189414978,0.5053824186325073,0.95,0.81,0.00031498026247371797
949,0.3648058772087097,0.5052850246429443,0.95,0.81,0.00031498026247371797
950,0.364777147769928,0.5051979422569275,0.95,0.81,0.00031498026247371797
951,0.36474549770355225,0.5051480531692505,0.95,0.81,0.00031498026247371797
952,0.36470848321914673,0.5051125288009644,0.95,0.81,0.00031498026247371797
953,0.36466220021247864,0.5050905346870422,0.95,0.81,0.00031498026247371797
954,0.36460375785827637,0.5050581097602844,0.95,0.81,0.00031498026247371797
955,0.3645258843898773,0.5049895644187927,0.95,0.81,0.00031498026247371797
956,0.36443397402763367,0.5048225522041321,0.95,0.81,0.00031498026247371797
957,0.3643345534801483,0.5045386552810669,0.95,0.81,0.00031498026247371797
958,0.36421695351600647,0.5040921568870544,0.95,0.81,0.00031498026247371797
959,0.36407309770584106,0.5033275485038757,0.95,0.81,0.00031498026247371797
960,0.36386993527412415,0.5012349486351013,0.95,0.81,0.00031498026247371797
961,0.3634715676307678,0.49450957775115967,0.95,0.82,0.00031498026247371797
962,0.3628551959991455,0.49205437302589417,0.95,0.82,0.00031498026247371797
963,0.36174115538597107,0.4987351596355438,0.95,0.81,0.00031498026247371797
964,0.3604697287082672,0.501115620136261,0.96,0.81,0.00031498026247371797
965,0.3597843050956726,0.5018138289451599,0.96,0.81,0.00031498026247371797
966,0.36052924394607544,0.5119582414627075,0.96,0.8,0.00031498026247371797
967,0.3600320816040039,0.5120608806610107,0.96,0.8,0.00031498026247371797
968,0.3607216775417328,0.5124030113220215,0.96,0.8,0.00031498026247371797
969,0.3694675862789154,0.4895711839199066,0.95,0.82,0.00031498026247371797
970,0.3792765438556671,0.5124834179878235,0.93,0.8,0.00031498026247371797
971,0.37122073769569397,0.5014318823814392,0.94,0.81,0.00031498026247371797
972,0.3757934868335724,0.52325439453125,0.94,0.79,0.00031498026247371797
973,0.4025142192840576,0.5173552632331848,0.91,0.8,0.00031498026247371797
974,0.3877068758010864,0.5174357891082764,0.93,0.79,0.00031498026247371797
975,0.4241448938846588,0.5167785882949829,0.89,0.8,0.00031498026247371797
976,0.4291679859161377,0.532362699508667,0.89,0.78,0.00031498026247371797
977,0.43263623118400574,0.5158008933067322,0.89,0.8,0.00031498026247371797
978,0.4411267042160034,0.48130446672439575,0.87,0.84,0.00031498026247371797
979,0.40841051936149597,0.4486989676952362,0.9,0.87,0.00031498026247371797
980,0.39461302757263184,0.4461086392402649,0.92,0.86,0.00031498026247371797
981,0.4057398736476898,0.45898255705833435,0.9,0.85,0.00031498026247371797
982,0.40367591381073,0.4542638659477234,0.92,0.86,0.00031498026247371797
983,0.40000951290130615,0.461467981338501,0.92,0.84,0.00031498026247371797
984,0.4167367219924927,0.46780896186828613,0.9,0.84,0.00031498026247371797
985,0.4529798924922943,0.47074955701828003,0.85,0.83,0.00031498026247371797
986,0.44769173860549927,0.4629930853843689,0.87,0.84,0.00031498026247371797
987,0.4419405460357666,0.45354583859443665,0.88,0.86,0.00031498026247371797
988,0.43470433354377747,0.4475734233856201,0.88,0.87,0.00031498026247371797
989,0.41858959197998047,0.44737786054611206,0.9,0.86,0.00031498026247371797
990,0.4174942076206207,0.43972259759902954,0.9,0.87,0.00031498026247371797
991,0.4214933514595032,0.4430752098560333,0.9,0.87,0.00031498026247371797
992,0.4226682186126709,0.44899842143058777,0.9,0.85,0.00031498026247371797
993,0.4213142693042755,0.45458897948265076,0.9,0.86,0.00031498026247371797
994,0.4194568395614624,0.45945578813552856,0.9,0.85,0.00031498026247371797
995,0.4190674126148224,0.464430570602417,0.9,0.85,0.00031498026247371797
996,0.4245220124721527,0.4637379050254822,0.89,0.85,0.00031498026247371797
997,0.42015761137008667,0.4609624147415161,0.9,0.85,0.00031498026247371797
998,0.41834113001823425,0.457881361246109,0.9,0.85,0.00031498026247371797
999,0.41747212409973145,0.4543136656284332,0.9,0.86,0.00031498026247371797
1000,0.41641247272491455,0.44987714290618896,0.9,0.87,0.00031498026247371797
1001,0.4147106409072876,0.44505375623703003,0.9,0.87,0.00031498026247371797
1002,0.4125804901123047,0.44161003828048706,0.91,0.88,0.00031498026247371797
1003,0.41102901101112366,0.4399922490119934,0.91,0.88,0.00031498026247371797
1004,0.41015565395355225,0.4394833445549011,0.91,0.88,0.00031498026247371797
1005,0.40965530276298523,0.4395713806152344,0.91,0.88,0.00031498026247371797
1006,0.4093855917453766,0.43997788429260254,0.91,0.88,0.00031498026247371797
1007,0.40927910804748535,0.44048768281936646,0.91,0.87,0.00031498026247371797
1008,0.4092588424682617,0.44093990325927734,0.91,0.87,0.00031498026247371797
1009,0.4092361330986023,0.4412156343460083,0.91,0.87,0.00031498026247371797
1010,0.40914109349250793,0.44130125641822815,0.91,0.87,0.00031498026247371797
1011,0.4089502692222595,0.4412393569946289,0.91,0.87,0.00031498026247371797
1012,0.40869468450546265,0.44114741683006287,0.91,0.87,0.00031498026247371797
1013,0.40841391682624817,0.4410972595214844,0.91,0.87,0.00031498026247371797
1014,0.40778565406799316,0.44118449091911316,0.91,0.87,0.00031498026247371797
1015,0.3979528844356537,0.44165679812431335,0.92,0.87,0.00031498026247371797
1016,0.39790043234825134,0.44230595231056213,0.92,0.87,0.00031498026247371797
1017,0.39793670177459717,0.4429261088371277,0.92,0.86,0.00031498026247371797
1018,0.3978636860847473,0.4434169828891754,0.92,0.87,0.00031498026247371797
1019,0.3976370692253113,0.44377192854881287,0.92,0.87,0.00031498026247371797
1020,0.39730438590049744,0.44404298067092896,0.92,0.87,0.00031498026247371797
1021,0.39698326587677,0.4442962408065796,0.92,0.87,0.00031498026247371797
1022,0.396763414144516,0.4445844292640686,0.92,0.87,0.00031498026247371797
1023,0.3966759741306305,0.44491156935691833,0.92,0.87,0.00031498026247371797
1024,0.3966964781284332,0.4452449381351471,0.92,0.87,0.00031498026247371797
1025,0.39677584171295166,0.44549837708473206,0.92,0.87,0.00031498026247371797
1026,0.3968314230442047,0.44563761353492737,0.92,0.87,0.00031498026247371797
1027,0.3968154489994049,0.4456683397293091,0.92,0.87,0.00031498026247371797
1028,0.39672011137008667,0.44565433263778687,0.92,0.87,0.00031498026247371797
1029,0.39655110239982605,0.4456821382045746,0.92,0.87,0.00031498026247371797
1030,0.3898664116859436,0.4543282985687256,0.93,0.86,0.00031498026247371797
1031,0.4018498957157135,0.46508902311325073,0.91,0.84,0.00031498026247371797
1032,0.4159860908985138,0.48795628547668457,0.9,0.82,0.00031498026247371797
1033,0.437944233417511,0.5140504837036133,0.87,0.8,0.00031498026247371797
1034,0.4495731592178345,0.5101737380027771,0.86,0.81,0.00031498026247371797
1035,0.424734890460968,0.503435492515564,0.89,0.81,0.00031498026247371797
1036,0.40755021572113037,0.470612496137619,0.9,0.85,0.00031498026247371797
1037,0.3946245312690735,0.4605276584625244,0.92,0.85,0.00031498026247371797
1038,0.388950914144516,0.4547421634197235,0.93,0.86,0.00031498026247371797
1039,0.38331809639930725,0.4537229537963867,0.93,0.86,0.00031498026247371797
1040,0.3917178809642792,0.4535764455795288,0.91,0.86,0.00031498026247371797
1041,0.39642760157585144,0.46346259117126465,0.91,0.85,0.00031498026247371797
1042,0.39802566170692444,0.4534899890422821,0.91,0.86,0.00031498026247371797
1043,0.39884698390960693,0.45345553755760193,0.91,0.86,0.00031498026247371797
1044,0.39919987320899963,0.45340675115585327,0.91,0.86,0.00031498026247371797
1045,0.40040406584739685,0.4540533721446991,0.91,0.86,0.00031498026247371797
1046,0.39429980516433716,0.5169561505317688,0.91,0.79,0.00031498026247371797
1047,0.38814136385917664,0.5398789048194885,0.93,0.77,0.00031498026247371797
1048,0.4201909303665161,0.5459580421447754,0.88,0.77,0.00031498026247371797
1049,0.46737343072891235,0.6003928184509277,0.84,0.71,0.00031498026247371797
1050,0.5490961670875549,0.6128591299057007,0.76,0.7,0.00031498026247371797
1051,0.5540452003479004,0.6227468252182007,0.76,0.69,0.00031498026247371797
1052,0.5643279552459717,0.6122846007347107,0.73,0.69,0.00031498026247371797
1053,0.5420879125595093,0.5714666843414307,0.76,0.72,0.00031498026247371797
1054,0.5125789642333984,0.5464525818824768,0.78,0.76,0.00031498026247371797
1055,0.4895252585411072,0.5264864563941956,0.8,0.78,0.00031498026247371797
1056,0.4612259566783905,0.5140471458435059,0.85,0.8,0.00031498026247371797
1057,0.44613713026046753,0.522094190120697,0.86,0.79,0.00031498026247371797
1058,0.45653271675109863,0.5110267996788025,0.85,0.81,0.00031498026247371797
1059,0.44352856278419495,0.5186697244644165,0.85,0.79,0.00031498026247371797
1060,0.4237337112426758,0.5094238519668579,0.88,0.81,0.00031498026247371797
1061,0.41178053617477417,0.5146158337593079,0.89,0.81,0.00031498026247371797
1062,0.4117407500743866,0.521945059299469,0.91,0.8,0.00031498026247371797
1063,0.41152846813201904,0.521919846534729,0.91,0.8,0.00031498026247371797
1064,0.41203147172927856,0.5225846767425537,0.91,0.8,0.00031498026247371797
1065,0.4136340618133545,0.5233971476554871,0.91,0.78,0.00031498026247371797
1066,0.4136771261692047,0.5242897868156433,0.89,0.78,0.0002499999999999997
1067,0.41558924317359924,0.5286493301391602,0.89,0.78,0.0002499999999999997
1068,0.4111785590648651,0.5349953174591064,0.91,0.77,0.0002499999999999997
1069,0.40645936131477356,0.5379790663719177,0.91,0.76,0.0002499999999999997
1070,0.40433692932128906,0.5397347807884216,0.92,0.76,0.0002499999999999997
1071,0.40411415696144104,0.5377178192138672,0.92,0.77,0.0002499999999999997
1072,0.40321946144104004,0.5341523885726929,0.92,0.78,0.0002499999999999997
1073,0.40295231342315674,0.5326783657073975,0.92,0.78,0.0002499999999999997
1074,0.404082328081131,0.5324361324310303,0.92,0.78,0.0002499999999999997
1075,0.4044020473957062,0.5323352217674255,0.92,0.78,0.0002499999999999997
1076,0.40348151326179504,0.5322057604789734,0.92,0.78,0.0002499999999999997
1077,0.4021349847316742,0.5321857929229736,0.92,0.78,0.0002499999999999997
1078,0.4010409414768219,0.5322697758674622,0.92,0.79,0.0002499999999999997
1079,0.40037524700164795,0.5321146845817566,0.92,0.79,0.0002499999999999997
1080,0.40007391571998596,0.5314996838569641,0.92,0.78,0.0002499999999999997
1081,0.3999170958995819,0.5303487777709961,0.92,0.78,0.0002499999999999997
1082,0.39961665868759155,0.5287992358207703,0.92,0.78,0.0002499999999999997
1083,0.399074524641037,0.5270271897315979,0.92,0.79,0.0002499999999999997
1084,0.3984373211860657,0.5253843069076538,0.92,0.79,0.0002499999999999997
1085,0.3979480266571045,0.5246404409408569,0.92,0.79,0.0002499999999999997
1086,0.39770060777664185,0.5265496969223022,0.92,0.78,0.0002499999999999997
1087,0.3976411819458008,0.5274165272712708,0.92,0.78,0.0002499999999999997
1088,0.39764484763145447,0.5274894833564758,0.92,0.78,0.0002499999999999997
1089,0.39759373664855957,0.5274785757064819,0.92,0.78,0.0002499999999999997
1090,0.3974493145942688,0.5273410677909851,0.92,0.78,0.0002499999999999997
1091,0.3972322940826416,0.5269985795021057,0.92,0.79,0.0002499999999999997
1092,0.397327721118927,0.526339054107666,0.92,0.79,0.0002499999999999997
1093,0.39684197306632996,0.5269265174865723,0.92,0.79,0.0002499999999999997
1094,0.39683377742767334,0.5277811288833618,0.92,0.79,0.0002499999999999997
1095,0.3969126045703888,0.5284674167633057,0.92,0.79,0.0002499999999999997
1096,0.3969744145870209,0.5288322567939758,0.92,0.79,0.0002499999999999997
1097,0.3969377875328064,0.5288758873939514,0.92,0.79,0.0002499999999999997
1098,0.39682379364967346,0.5286445617675781,0.92,0.79,0.0002499999999999997
1099,0.3966751992702484,0.5282680988311768,0.92,0.79,0.0002499999999999997
1100,0.3965596854686737,0.5278335809707642,0.92,0.79,0.0002499999999999997
1101,0.3964989185333252,0.5274450182914734,0.92,0.79,0.0002499999999999997
1102,0.3964797556400299,0.5270851850509644,0.92,0.79,0.0002499999999999997
1103,0.39647024869918823,0.5267781019210815,0.92,0.79,0.0002499999999999997
1104,0.3964465260505676,0.5265186429023743,0.92,0.79,0.0002499999999999997
1105,0.3963901400566101,0.5263192653656006,0.92,0.79,0.0002499999999999997
1106,0.3963061571121216,0.5261737108230591,0.92,0.79,0.0002499999999999997
1107,0.396213561296463,0.526110827922821,0.92,0.79,0.0002499999999999997
1108,0.39612552523612976,0.5261191725730896,0.92,0.79,0.0002499999999999997
1109,0.39605820178985596,0.5261562466621399,0.92,0.79,0.0002499999999999997
1110,0.39601361751556396,0.5261805057525635,0.92,0.79,0.0002499999999999997
1111,0.3959842324256897,0.5261515974998474,0.92,0.79,0.0002499999999999997
1112,0.39595848321914673,0.5260145664215088,0.92,0.79,0.0002499999999999997
1113,0.39592182636260986,0.52581787109375,0.92,0.79,0.0002499999999999997
1114,0.39587506651878357,0.5255582928657532,0.92,0.79,0.0002499999999999997
1115,0.3958217203617096,0.5252407789230347,0.92,0.79,0.0002499999999999997
1116,0.39576682448387146,0.5249231457710266,0.92,0.79,0.0002499999999999997
1117,0.39571675658226013,0.5246151089668274,0.92,0.79,0.0002499999999999997
1118,0.3956731855869293,0.5243805050849915,0.92,0.79,0.0002499999999999997
1119,0.39563795924186707,0.524218738079071,0.92,0.79,0.0002499999999999997
1120,0.395605206489563,0.5241264700889587,0.92,0.79,0.0002499999999999997
1121,0.39557284116744995,0.5240931510925293,0.92,0.79,0.0002499999999999997
1122,0.39553847908973694,0.5241200923919678,0.92,0.79,0.0002499999999999997
1123,0.3955007493495941,0.5242195725440979,0.92,0.79,0.0002499999999999997
1124,0.3954601585865021,0.5243552327156067,0.92,0.79,0.0002499999999999997
1125,0.39541977643966675,0.5245047211647034,0.92,0.79,0.0002499999999999997
1126,0.395381897687912,0.5246767997741699,0.92,0.79,0.0002499999999999997
1127,0.39534682035446167,0.5248401165008545,0.92,0.79,0.0002499999999999997
1128,0.3953147828578949,0.5249804258346558,0.92,0.79,0.0002499999999999997
1129,0.3952849507331848,0.5250898599624634,0.92,0.79,0.0002499999999999997
1130,0.39525550603866577,0.5251712203025818,0.92,0.79,0.0002499999999999997
1131,0.3952263295650482,0.5252184271812439,0.92,0.79,0.0002499999999999997
1132,0.3951961100101471,0.5252314805984497,0.92,0.79,0.0002499999999999997
1133,0.39516520500183105,0.5252191424369812,0.92,0.79,0.0002499999999999997
1134,0.39513424038887024,0.5252009630203247,0.92,0.79,0.0002499999999999997
1135,0.395102858543396,0.5251731276512146,0.92,0.79,0.0002499999999999997
1136,0.3950727581977844,0.525145411491394,0.92,0.79,0.0002499999999999997
1137,0.3950434923171997,0.5251258611679077,0.92,0.79,0.0002499999999999997
1138,0.3950154185295105,0.5251035094261169,0.92,0.79,0.0002499999999999997
1139,0.3949877917766571,0.525098443031311,0.92,0.79,0.0002499999999999997
1140,0.3949600160121918,0.5251131653785706,0.92,0.79,0.0002499999999999997
1141,0.3949320912361145,0.5251530408859253,0.92,0.79,0.0002499999999999997
1142,0.3949025273323059,0.5251874327659607,0.92,0.79,0.0002499999999999997
1143,0.39487284421920776,0.5252476930618286,0.92,0.79,0.0002499999999999997
1144,0.3948429822921753,0.5253165364265442,0.92,0.79,0.0002499999999999997
1145,0.39481213688850403,0.5254049897193909,0.92,0.79,0.0002499999999999997
1146,0.39478015899658203,0.5254970788955688,0.92,0.79,0.0002499999999999997
1147,0.3947472870349884,0.5255936980247498,0.92,0.79,0.0002499999999999997
1148,0.39471352100372314,0.5257002115249634,0.92,0.79,0.0002499999999999997
1149,0.3946777582168579,0.5258199572563171,0.92,0.79,0.0002499999999999997
1150,0.3946392834186554,0.525958776473999,0.92,0.79,0.0002499999999999997
1151,0.39459723234176636,0.5261150002479553,0.92,0.79,0.0002499999999999997
1152,0.3945499062538147,0.5263054966926575,0.92,0.79,0.0002499999999999997
1153,0.39449700713157654,0.5265257358551025,0.92,0.79,0.0002499999999999997
1154,0.39443516731262207,0.5268122553825378,0.92,0.79,0.0002499999999999997
1155,0.3943602442741394,0.5271450877189636,0.92,0.79,0.0002499999999999997
1156,0.39427024126052856,0.5275459885597229,0.92,0.78,0.0002499999999999997
1157,0.39415621757507324,0.5280448794364929,0.92,0.78,0.0002499999999999997
1158,0.39400535821914673,0.5286593437194824,0.92,0.78,0.0002499999999999997
1159,0.39380499720573425,0.5293818712234497,0.92,0.77,0.0002499999999999997
1160,0.39352622628211975,0.5302479267120361,0.92,0.76,0.0002499999999999997
1161,0.3931269943714142,0.5312235355377197,0.92,0.76,0.0002499999999999997
1162,0.3925568759441376,0.5322575569152832,0.92,0.76,0.0002499999999999997
1163,0.391771137714386,0.5332775712013245,0.92,0.77,0.0002499999999999997
1164,0.3907954692840576,0.5342088937759399,0.92,0.77,0.0002499999999999997
1165,0.3898443877696991,0.535010814666748,0.93,0.77,0.0002499999999999997
1166,0.38911542296409607,0.5356529355049133,0.93,0.77,0.0002499999999999997
1167,0.38851985335350037,0.536066472530365,0.93,0.77,0.00019842513149602464
1168,0.39307063817977905,0.5367719531059265,0.92,0.77,0.00019842513149602464
1169,0.3882368803024292,0.5371947288513184,0.93,0.77,0.00019842513149602464
1170,0.388286828994751,0.5326653718948364,0.93,0.77,0.00019842513149602464
1171,0.3881073296070099,0.5310022830963135,0.93,0.77,0.00019842513149602464
1172,0.3877624571323395,0.5299139618873596,0.93,0.77,0.00019842513149602464
1173,0.3874327540397644,0.5280883312225342,0.93,0.77,0.00019842513149602464
1174,0.38718873262405396,0.5265158414840698,0.93,0.77,0.00019842513149602464
1175,0.38700222969055176,0.525277853012085,0.93,0.77,0.00019842513149602464
1176,0.3868206739425659,0.5241127610206604,0.93,0.77,0.00019842513149602464
1177,0.38658982515335083,0.524641752243042,0.93,0.77,0.00019842513149602464
1178,0.3862111568450928,0.5233548879623413,0.93,0.77,0.00019842513149602464
1179,0.3854827582836151,0.5180773735046387,0.93,0.77,0.00019842513149602464
1180,0.3838234841823578,0.5160108804702759,0.93,0.78,0.00019842513149602464
1181,0.3910980224609375,0.5285956859588623,0.93,0.77,0.00019842513149602464
1182,0.3893761932849884,0.5484259128570557,0.92,0.75,0.00019842513149602464
1183,0.4016009271144867,0.5683184862136841,0.91,0.74,0.00019842513149602464
1184,0.4065624475479126,0.5691744089126587,0.9,0.73,0.00019842513149602464
1185,0.40259891748428345,0.54506915807724,0.91,0.77,0.00019842513149602464
1186,0.40507203340530396,0.5102469325065613,0.91,0.81,0.00019842513149602464
1187,0.39348524808883667,0.5113526582717896,0.92,0.81,0.00019842513149602464
1188,0.40312984585762024,0.5148131251335144,0.92,0.8,0.00019842513149602464
1189,0.40483558177948,0.5190134644508362,0.91,0.8,0.00019842513149602464
1190,0.39516937732696533,0.5162851810455322,0.92,0.8,0.00019842513149602464
1191,0.39528846740722656,0.516465961933136,0.92,0.78,0.00019842513149602464
1192,0.39318954944610596,0.5164861083030701,0.93,0.79,0.00019842513149602464
1193,0.3885518014431,0.5177955627441406,0.93,0.78,0.00019842513149602464
1194,0.38606885075569153,0.5190023183822632,0.93,0.79,0.00019842513149602464
1195,0.38345611095428467,0.5067793130874634,0.92,0.8,0.00019842513149602464
1196,0.3787844777107239,0.49872860312461853,0.93,0.81,0.00019842513149602464
1197,0.378844290971756,0.5055333375930786,0.93,0.81,0.00019842513149602464
1198,0.3819520175457001,0.5100266933441162,0.93,0.8,0.00019842513149602464
1199,0.384812593460083,0.5046408176422119,0.93,0.81,0.00019842513149602464
1200,0.38072288036346436,0.4967156648635864,0.93,0.82,0.00019842513149602464
1201,0.3753127157688141,0.4945557415485382,0.94,0.82,0.00019842513149602464
1202,0.37331363558769226,0.49917125701904297,0.94,0.81,0.00019842513149602464
1203,0.371526837348938,0.5008047223091125,0.94,0.81,0.00019842513149602464
1204,0.3669084906578064,0.5002179145812988,0.95,0.81,0.00019842513149602464
1205,0.36449703574180603,0.4984354078769684,0.95,0.81,0.00019842513149602464
1206,0.36529818177223206,0.49829569458961487,0.95,0.82,0.00019842513149602464
1207,0.3663475513458252,0.500521719455719,0.95,0.81,0.00019842513149602464
1208,0.36297228932380676,0.5016947984695435,0.95,0.8,0.00019842513149602464
1209,0.36095595359802246,0.5088918805122375,0.95,0.79,0.00019842513149602464
1210,0.3594844937324524,0.5057451128959656,0.96,0.8,0.00019842513149602464
1211,0.35753050446510315,0.5027166604995728,0.96,0.8,0.00019842513149602464
1212,0.356764018535614,0.49491778016090393,0.96,0.8,0.00019842513149602464
1213,0.3569334149360657,0.4876002073287964,0.96,0.81,0.00019842513149602464
1214,0.3576100170612335,0.48563551902770996,0.96,0.81,0.00019842513149602464
1215,0.3583921194076538,0.48429858684539795,0.96,0.81,0.00019842513149602464
1216,0.3587590157985687,0.48362022638320923,0.96,0.81,0.00019842513149602464
1217,0.3585335612297058,0.48344147205352783,0.96,0.82,0.00019842513149602464
1218,0.35787510871887207,0.48380663990974426,0.96,0.82,0.00019842513149602464
1219,0.35712921619415283,0.48478612303733826,0.96,0.81,0.00019842513149602464
1220,0.3565695583820343,0.4862203896045685,0.96,0.81,0.00019842513149602464
1221,0.35627272725105286,0.48803332448005676,0.96,0.81,0.00019842513149602464
1222,0.3561323881149292,0.48971644043922424,0.96,0.81,0.00019842513149602464
1223,0.35606464743614197,0.49065831303596497,0.96,0.81,0.00019842513149602464
1224,0.35604122281074524,0.49022942781448364,0.96,0.82,0.00019842513149602464
1225,0.36605340242385864,0.4874486029148102,0.95,0.82,0.00019842513149602464
1226,0.36608681082725525,0.484404593706131,0.95,0.83,0.00019842513149602464
1227,0.3660910427570343,0.48312899470329285,0.95,0.83,0.00019842513149602464
1228,0.36604681611061096,0.4827553927898407,0.95,0.83,0.00019842513149602464
1229,0.3659493625164032,0.48258402943611145,0.95,0.83,0.00019842513149602464
1230,0.36582717299461365,0.4823082387447357,0.95,0.82,0.00019842513149602464
1231,0.36571136116981506,0.48175889253616333,0.95,0.82,0.00019842513149602464
1232,0.36561843752861023,0.48095330595970154,0.95,0.82,0.00019842513149602464
1233,0.3655485212802887,0.4801532030105591,0.95,0.82,0.00019842513149602464
1234,0.3654903769493103,0.47971630096435547,0.95,0.82,0.00019842513149602464
1235,0.3654339909553528,0.48068785667419434,0.95,0.82,0.00019842513149602464
1236,0.3653698265552521,0.48371386528015137,0.95,0.81,0.00019842513149602464
1237,0.3653051257133484,0.4862562119960785,0.95,0.81,0.00019842513149602464
1238,0.36525222659111023,0.48716604709625244,0.95,0.81,0.00019842513149602464
1239,0.3652172386646271,0.48741310834884644,0.95,0.81,0.00019842513149602464
1240,0.3652019202709198,0.4874407947063446,0.95,0.81,0.00019842513149602464
1241,0.3651965260505676,0.48735782504081726,0.95,0.81,0.00019842513149602464
1242,0.3651870787143707,0.4872947037220001,0.95,0.81,0.00019842513149602464
1243,0.36517074704170227,0.4872237741947174,0.95,0.81,0.00019842513149602464
1244,0.3651418387889862,0.4871751070022583,0.95,0.81,0.00019842513149602464
1245,0.3651084005832672,0.48710495233535767,0.95,0.81,0.00019842513149602464
1246,0.3650739789009094,0.48707646131515503,0.95,0.81,0.00019842513149602464
1247,0.36504366993904114,0.48704788088798523,0.95,0.81,0.00019842513149602464
1248,0.3650158643722534,0.48697197437286377,0.95,0.81,0.00019842513149602464
1249,0.36498722434043884,0.4866847097873688,0.95,0.81,0.00019842513149602464
1250,0.3649580776691437,0.48611152172088623,0.95,0.81,0.00019842513149602464
1251,0.3649276793003082,0.48520365357398987,0.95,0.81,0.00019842513149602464
1252,0.3648977279663086,0.48413458466529846,0.95,0.81,0.00019842513149602464
1253,0.36487266421318054,0.4830714464187622,0.95,0.83,0.00019842513149602464
1254,0.3648524880409241,0.4822133183479309,0.95,0.83,0.00019842513149602464
1255,0.36483654379844666,0.4816284477710724,0.95,0.83,0.00019842513149602464
1256,0.36482343077659607,0.4812411963939667,0.95,0.83,0.00019842513149602464
1257,0.364810973405838,0.4810025691986084,0.95,0.83,0.00019842513149602464
1258,0.36479857563972473,0.480879545211792,0.95,0.83,0.00019842513149602464
1259,0.364785373210907,0.48082810640335083,0.95,0.83,0.00019842513149602464
1260,0.3647724390029907,0.4808086156845093,0.95,0.83,0.00019842513149602464
1261,0.36475980281829834,0.4808029234409332,0.95,0.83,0.00019842513149602464
1262,0.36474764347076416,0.48079222440719604,0.95,0.83,0.00019842513149602464
1263,0.36473584175109863,0.48076972365379333,0.95,0.83,0.00019842513149602464
1264,0.36472347378730774,0.48073235154151917,0.95,0.83,0.00019842513149602464
1265,0.3647112548351288,0.48067745566368103,0.95,0.83,0.00019842513149602464
1266,0.3646983206272125,0.4806090295314789,0.95,0.83,0.00019842513149602464
1267,0.3646857738494873,0.4805293679237366,0.95,0.83,0.00019842513149602464
1268,0.36467331647872925,0.48044711351394653,0.95,0.83,0.00019842513149602464
1269,0.3646616041660309,0.4803677499294281,0.95,0.83,0.00019842513149602464
1270,0.364650696516037,0.48028963804244995,0.95,0.83,0.00019842513149602464
1271,0.36464065313339233,0.480217844247818,0.95,0.83,0.00019842513149602464
1272,0.36463096737861633,0.48015204071998596,0.95,0.83,0.00019842513149602464
1273,0.36462143063545227,0.4800978899002075,0.95,0.83,0.00019842513149602464
1274,0.36461231112480164,0.48006299138069153,0.95,0.83,0.00019842513149602464
1275,0.3646030128002167,0.48002463579177856,0.95,0.83,0.00019842513149602464
1276,0.36459431052207947,0.4799966812133789,0.95,0.83,0.00019842513149602464
1277,0.36458584666252136,0.47997090220451355,0.95,0.83,0.00019842513149602464
1278,0.36457759141921997,0.47994735836982727,0.95,0.83,0.00019842513149602464
1279,0.36456939578056335,0.47993525862693787,0.95,0.83,0.00019842513149602464
1280,0.3645610511302948,0.4799250066280365,0.95,0.83,0.00019842513149602464
1281,0.3645530641078949,0.4799222946166992,0.95,0.83,0.00019842513149602464
1282,0.36454498767852783,0.47992321848869324,0.95,0.83,0.00019842513149602464
1283,0.36453694105148315,0.479923814535141,0.95,0.83,0.00019842513149602464
1284,0.36452892422676086,0.4799288213253021,0.95,0.83,0.00019842513149602464
1285,0.36452141404151917,0.47993478178977966,0.95,0.83,0.00019842513149602464
1286,0.36451393365859985,0.47994616627693176,0.95,0.83,0.00019842513149602464
1287,0.3645065724849701,0.4799584150314331,0.95,0.83,0.00019842513149602464
1288,0.36449939012527466,0.47997748851776123,0.95,0.83,0.00019842513149602464
1289,0.364492267370224,0.47999703884124756,0.95,0.83,0.00019842513149602464
1290,0.3644852936267853,0.4800189733505249,0.95,0.83,0.00019842513149602464
1291,0.36447811126708984,0.4800375998020172,0.95,0.83,0.00019842513149602464
1292,0.3644711673259735,0.4800513982772827,0.95,0.83,0.00019842513149602464
1293,0.3644646406173706,0.4800620675086975,0.95,0.83,0.00019842513149602464
1294,0.36445799469947815,0.4800674319267273,0.95,0.83,0.00019842513149602464
1295,0.36445149779319763,0.4800664484500885,0.95,0.83,0.00019842513149602464
1296,0.36444517970085144,0.48006561398506165,0.95,0.83,0.00019842513149602464
1297,0.36443886160850525,0.48004406690597534,0.95,0.83,0.00019842513149602464
1298,0.3644324839115143,0.480026513338089,0.95,0.83,0.00019842513149602464
1299,0.3644261062145233,0.48000583052635193,0.95,0.83,0.00019842513149602464
1300,0.3644198477268219,0.47998329997062683,0.95,0.83,0.00019842513149602464
1301,0.36441370844841003,0.47995707392692566,0.95,0.83,0.00019842513149602464
1302,0.3644077181816101,0.4799318015575409,0.95,0.83,0.00019842513149602464
1303,0.36440184712409973,0.4799101650714874,0.95,0.83,0.00019842513149602464
1304,0.3643958568572998,0.47988682985305786,0.95,0.83,0.00019842513149602464
1305,0.3643900752067566,0.4798617959022522,0.95,0.83,0.00019842513149602464
1306,0.36438435316085815,0.4798421561717987,0.95,0.83,0.00019842513149602464
1307,0.36437851190567017,0.4798229932785034,0.95,0.83,0.00019842513149602464
1308,0.36437270045280457,0.47979751229286194,0.95,0.83,0.00019842513149602464
1309,0.36436694860458374,0.47978028655052185,0.95,0.83,0.00019842513149602464
1310,0.3643614947795868,0.47975799441337585,0.95,0.83,0.00019842513149602464
1311,0.364356130361557,0.4797396957874298,0.95,0.83,0.00019842513149602464
1312,0.3643507659435272,0.4797188639640808,0.95,0.83,0.00019842513149602464
1313,0.3643453121185303,0.4796994924545288,0.95,0.83,0.00019842513149602464
1314,0.364340215921402,0.47968050837516785,0.95,0.83,0.00019842513149602464
1315,0.36433449387550354,0.47966980934143066,0.95,0.83,0.00019842513149602464
1316,0.36432942748069763,0.4796507656574249,0.95,0.83,0.00019842513149602464
1317,0.3643242120742798,0.47964000701904297,0.95,0.83,0.00019842513149602464
1318,0.36431920528411865,0.47962769865989685,0.95,0.83,0.00019842513149602464
1319,0.36431407928466797,0.47961360216140747,0.95,0.83,0.00019842513149602464
1320,0.3643091917037964,0.4795984625816345,0.95,0.83,0.00019842513149602464
1321,0.3643042743206024,0.4795871675014496,0.95,0.83,0.00019842513149602464
1322,0.36429935693740845,0.4795774519443512,0.95,0.83,0.00019842513149602464
1323,0.3642946481704712,0.4795650243759155,0.95,0.83,0.00019842513149602464
1324,0.364289790391922,0.47955435514450073,0.95,0.83,0.00015749013123685888
1325,0.36428508162498474,0.47954991459846497,0.95,0.83,0.00015749013123685888
1326,0.3642813563346863,0.4795432388782501,0.95,0.83,0.00015749013123685888
1327,0.36427760124206543,0.4795353412628174,0.95,0.83,0.00015749013123685888
1328,0.36427411437034607,0.47952818870544434,0.95,0.83,0.00015749013123685888
1329,0.36427050828933716,0.4795212149620056,0.95,0.83,0.00015749013123685888
1330,0.36426684260368347,0.47951385378837585,0.95,0.83,0.00015749013123685888
1331,0.3642633557319641,0.47950801253318787,0.95,0.83,0.00015749013123685888
1332,0.36425986886024475,0.47948771715164185,0.95,0.83,0.00015749013123685888
1333,0.364256352186203,0.4794866144657135,0.95,0.83,0.00015749013123685888
1334,0.3642527759075165,0.4794815480709076,0.95,0.83,0.00015749013123685888
1335,0.36424922943115234,0.47947654128074646,0.95,0.83,0.00015749013123685888
1336,0.3642456829547882,0.47947394847869873,0.95,0.83,0.00015749013123685888
1337,0.3642422556877136,0.4794676601886749,0.95,0.83,0.00015749013123685888
1338,0.3642389178276062,0.4794658422470093,0.95,0.83,0.00015749013123685888
1339,0.3642355799674988,0.4794631898403168,0.95,0.83,0.00015749013123685888
1340,0.3642321527004242,0.4794577658176422,0.95,0.83,0.00015749013123685888
1341,0.36422866582870483,0.4794507920742035,0.95,0.83,0.00015749013123685888
1342,0.3642254173755646,0.4794449210166931,0.95,0.83,0.00015749013123685888
1343,0.36422213912010193,0.4794389307498932,0.95,0.83,0.00015749013123685888
1344,0.3642190098762512,0.4794304370880127,0.95,0.83,0.00015749013123685888
1345,0.3642157018184662,0.479422926902771,0.95,0.83,0.00015749013123685888
1346,0.3642125427722931,0.47941505908966064,0.95,0.83,0.00015749013123685888
1347,0.3642093539237976,0.47939711809158325,0.95,0.83,0.00015749013123685888
1348,0.3642060160636902,0.47939059138298035,0.95,0.83,0.00015749013123685888
1349,0.3642028868198395,0.4793839156627655,0.95,0.83,0.00015749013123685888
1350,0.36419978737831116,0.4793769121170044,0.95,0.83,0.00015749013123685888
1351,0.36419668793678284,0.47936975955963135,0.95,0.83,0.00015749013123685888
1352,0.36419352889060974,0.47936728596687317,0.95,0.83,0.00015749013123685888
1353,0.36419039964675903,0.4793640077114105,0.95,0.83,0.00015749013123685888
1354,0.3641873300075531,0.4793609380722046,0.95,0.83,0.00015749013123685888
1355,0.3641842007637024,0.47935470938682556,0.95,0.83,0.00015749013123685888
1356,0.36418116092681885,0.4793475866317749,0.95,0.83,0.00015749013123685888
1357,0.36417824029922485,0.47934168577194214,0.95,0.83,0.00015749013123685888
1358,0.3641749918460846,0.4793337285518646,0.95,0.83,0.00015749013123685888
1359,0.3641720116138458,0.47932735085487366,0.95,0.83,0.00015749013123685888
1360,0.36416903138160706,0.47932007908821106,0.95,0.83,0.00015749013123685888
1361,0.36416611075401306,0.4793165922164917,0.95,0.83,0.00015749013123685888
1362,0.36416301131248474,0.47931021451950073,0.95,0.83,0.00015749013123685888
1363,0.3641601502895355,0.4793032109737396,0.95,0.83,0.00015749013123685888
1364,0.3641572594642639,0.4792979955673218,0.95,0.83,0.00015749013123685888
1365,0.3641543984413147,0.4792872369289398,0.95,0.83,0.00015749013123685888
1366,0.36415135860443115,0.47928282618522644,0.95,0.83,0.00015749013123685888
1367,0.3641485571861267,0.4792776107788086,0.95,0.83,0.00015749013123685888
1368,0.3641456961631775,0.47926536202430725,0.95,0.83,0.00015749013123685888
1369,0.36414292454719543,0.47925126552581787,0.95,0.83,0.00015749013123685888
1370,0.3641400635242462,0.4792405366897583,0.95,0.83,0.00015749013123685888
1371,0.36413735151290894,0.4792284369468689,0.95,0.83,0.00015749013123685888
1372,0.3641344904899597,0.47921958565711975,0.95,0.83,0.00015749013123685888
1373,0.3641316890716553,0.4792104661464691,0.95,0.83,0.00015749013123685888
1374,0.36412906646728516,0.47920501232147217,0.95,0.83,0.00015749013123685888
1375,0.3641263246536255,0.47919654846191406,0.95,0.83,0.00015749013123685888
1376,0.36412352323532104,0.4791910946369171,0.95,0.83,0.00015749013123685888
1377,0.364120751619339,0.4791835844516754,0.95,0.83,0.00015749013123685888
1378,0.36411815881729126,0.4791777729988098,0.95,0.83,0.00015749013123685888
1379,0.36411547660827637,0.4791721701622009,0.95,0.83,0.00015749013123685888
1380,0.36411285400390625,0.4791659414768219,0.95,0.83,0.00015749013123685888
1381,0.3641102612018585,0.47916334867477417,0.95,0.83,0.00015749013123685888
1382,0.3641076683998108,0.47916001081466675,0.95,0.83,0.00015749013123685888
1383,0.36410486698150635,0.479154497385025,0.95,0.83,0.00015749013123685888
1384,0.3641023635864258,0.4791480302810669,0.95,0.83,0.00015749013123685888
1385,0.36409980058670044,0.4791415333747864,0.95,0.83,0.00015749013123685888
1386,0.3640972971916199,0.4791359603404999,0.95,0.83,0.00015749013123685888
1387,0.3640947639942169,0.47912895679473877,0.95,0.83,0.00015749013123685888
1388,0.3640921413898468,0.4791221618652344,0.95,0.83,0.00015749013123685888
1389,0.36408960819244385,0.47911548614501953,0.95,0.83,0.00015749013123685888
1390,0.3640871047973633,0.4791122376918793,0.95,0.83,0.00015749013123685888
1391,0.3640846312046051,0.4791068136692047,0.95,0.83,0.00015749013123685888
1392,0.36408206820487976,0.4791026711463928,0.95,0.83,0.00015749013123685888
1393,0.36407962441444397,0.47909432649612427,0.95,0.83,0.00015749013123685888
1394,0.3640771806240082,0.4790884852409363,0.95,0.83,0.00015749013123685888
1395,0.36407461762428284,0.4790824055671692,0.95,0.83,0.00015749013123685888
1396,0.3640722632408142,0.4790756106376648,0.95,0.83,0.00015749013123685888
1397,0.3640698194503784,0.4790676236152649,0.95,0.83,0.00015749013123685888
1398,0.3640674948692322,0.47906237840652466,0.95,0.83,0.00015749013123685888
1399,0.364065021276474,0.4790583550930023,0.95,0.83,0.00015749013123685888
1400,0.3640625774860382,0.4790477752685547,0.95,0.83,0.00015749013123685888
1401,0.36406001448631287,0.4790436029434204,0.95,0.83,0.00015749013123685888
1402,0.3640577793121338,0.4790412187576294,0.95,0.83,0.00015749013123685888
1403,0.3640553951263428,0.47903960943222046,0.95,0.83,0.00015749013123685888
1404,0.36405304074287415,0.47903701663017273,0.95,0.83,0.00015749013123685888
1405,0.3640507757663727,0.47903645038604736,0.95,0.83,0.00015749013123685888
1406,0.36404842138290405,0.4790344536304474,0.95,0.83,0.00015749013123685888
1407,0.3640460968017578,0.4790334403514862,0.95,0.83,0.00015749013123685888
1408,0.3640437722206116,0.4790291488170624,0.95,0.83,0.00015749013123685888
1409,0.3640415668487549,0.47902247309684753,0.95,0.83,0.00015749013123685888
1410,0.36403927206993103,0.47901713848114014,0.95,0.83,0.00015749013123685888
1411,0.36403706669807434,0.479008287191391,0.95,0.83,0.00015749013123685888
1412,0.3640347719192505,0.4790045917034149,0.95,0.83,0.00015749013123685888
1413,0.364032506942749,0.4789944887161255,0.95,0.83,0.00015749013123685888
1414,0.36403030157089233,0.4789842367172241,0.95,0.83,0.00015749013123685888
1415,0.3640282154083252,0.47897061705589294,0.95,0.83,0.00015749013123685888
1416,0.36402592062950134,0.47895294427871704,0.95,0.83,0.00015749013123685888
1417,0.36402371525764465,0.47894203662872314,0.95,0.83,0.00015749013123685888
1418,0.3640214502811432,0.4789348244667053,0.95,0.83,0.00015749013123685888
1419,0.3640192747116089,0.478929340839386,0.95,0.83,0.00015749013123685888
1420,0.3640170991420746,0.47892770171165466,0.95,0.83,0.00015749013123685888
1421,0.3640149235725403,0.4789242446422577,0.95,0.83,0.00015749013123685888
1422,0.36401286721229553,0.47892311215400696,0.95,0.83,0.00015749013123685888
1423,0.36401066184043884,0.47892042994499207,0.95,0.83,0.00015749013123685888
1424,0.36400851607322693,0.4789206385612488,0.95,0.83,0.00015749013123685888
1425,0.36400628089904785,0.4789133369922638,0.95,0.83,0.00012499999999999976
1426,0.3640040457248688,0.4789111018180847,0.95,0.83,0.00012499999999999976
1427,0.36400240659713745,0.4789077639579773,0.95,0.83,0.00012499999999999976
1428,0.36400076746940613,0.4789039194583893,0.95,0.83,0.00012499999999999976
1429,0.3639991879463196,0.4788967967033386,0.95,0.83,0.00012499999999999976
1430,0.3639974594116211,0.4788917899131775,0.95,0.83,0.00012499999999999976
1431,0.36399582028388977,0.4788880944252014,0.95,0.83,0.00012499999999999976
1432,0.3639942407608032,0.4788861572742462,0.95,0.83,0.00012499999999999976
1433,0.36399245262145996,0.47888079285621643,0.95,0.83,0.00012499999999999976
1434,0.3639909029006958,0.47887760400772095,0.95,0.83,0.00012499999999999976
1435,0.36398932337760925,0.4788753092288971,0.95,0.83,0.00012499999999999976
1436,0.36398768424987793,0.4788714647293091,0.95,0.83,0.00012499999999999976
1437,0.3639860451221466,0.4788689911365509,0.95,0.83,0.00012499999999999976
1438,0.3639845550060272,0.4788656234741211,0.95,0.83,0.00012499999999999976
1439,0.3639829158782959,0.4788619577884674,0.95,0.83,0.00012499999999999976
1440,0.36398136615753174,0.47885242104530334,0.95,0.83,0.00012499999999999976
1441,0.3639797866344452,0.47884881496429443,0.95,0.83,0.00012499999999999976
1442,0.36397820711135864,0.4788452088832855,0.95,0.83,0.00012499999999999976
1443,0.3639766275882721,0.47884291410446167,0.95,0.83,0.00012499999999999976
1444,0.3639751374721527,0.4788266718387604,0.95,0.83,0.00012499999999999976
1445,0.36397331953048706,0.47882676124572754,0.95,0.83,0.00012499999999999976
1446,0.36397162079811096,0.4788278639316559,0.95,0.83,0.00012499999999999976
1447,0.3639701008796692,0.4788305163383484,0.95,0.83,0.00012499999999999976
1448,0.36396846175193787,0.4788312613964081,0.95,0.83,0.00012499999999999976
1449,0.3639669418334961,0.47882941365242004,0.95,0.83,0.00012499999999999976
1450,0.3639654219150543,0.4788316786289215,0.95,0.83,0.00012499999999999976
1451,0.3639638125896454,0.4788294732570648,0.95,0.83,0.00012499999999999976
1452,0.363962322473526,0.4788275957107544,0.95,0.83,0.00012499999999999976
1453,0.36396077275276184,0.4788227379322052,0.95,0.83,0.00012499999999999976
1454,0.3639592230319977,0.4788167476654053,0.95,0.83,0.00012499999999999976
1455,0.36395779252052307,0.4788133502006531,0.95,0.83,0.00012499999999999976
1456,0.3639562726020813,0.4788070023059845,0.95,0.83,0.00012499999999999976
1457,0.36395472288131714,0.47879981994628906,0.95,0.83,0.00012499999999999976
1458,0.363953173160553,0.4787956476211548,0.95,0.83,0.00012499999999999976
1459,0.36395177245140076,0.47878798842430115,0.95,0.83,0.00012499999999999976
1460,0.36395028233528137,0.4787822663784027,0.95,0.83,0.00012499999999999976
1461,0.3639487028121948,0.4787748456001282,0.95,0.83,0.00012499999999999976
1462,0.36394721269607544,0.47876861691474915,0.95,0.83,0.00012499999999999976
1463,0.36394578218460083,0.47876235842704773,0.95,0.83,0.00012499999999999976
1464,0.36394432187080383,0.47875741124153137,0.95,0.83,0.00012499999999999976
1465,0.3639429211616516,0.47875282168388367,0.95,0.83,0.00012499999999999976
1466,0.3639415502548218,0.47874802350997925,0.95,0.83,0.00012499999999999976
1467,0.36393997073173523,0.47874563932418823,0.95,0.83,0.00012499999999999976
1468,0.3639386296272278,0.4787445068359375,0.95,0.83,0.00012499999999999976
1469,0.363937109708786,0.4787423312664032,0.95,0.83,0.00012499999999999976
1470,0.363935649394989,0.4787386953830719,0.95,0.83,0.00012499999999999976
1471,0.36393433809280396,0.47873643040657043,0.95,0.83,0.00012499999999999976
1472,0.3639329671859741,0.47874462604522705,0.95,0.83,0.00012499999999999976
1473,0.36393141746520996,0.47874245047569275,0.95,0.83,0.00012499999999999976
1474,0.36393001675605774,0.4787364900112152,0.95,0.83,0.00012499999999999976
1475,0.36392852663993835,0.47873207926750183,0.95,0.83,0.00012499999999999976
1476,0.3639271557331085,0.4787248969078064,0.95,0.83,0.00012499999999999976
1477,0.36392563581466675,0.4787220060825348,0.95,0.83,0.00012499999999999976
1478,0.3639242947101593,0.47871696949005127,0.95,0.83,0.00012499999999999976
1479,0.36392298340797424,0.4787121117115021,0.95,0.83,0.00012499999999999976
1480,0.363921582698822,0.4787079989910126,0.95,0.83,0.00012499999999999976
1481,0.3639201819896698,0.47870194911956787,0.95,0.83,0.00012499999999999976
1482,0.3639187514781952,0.478697270154953,0.95,0.83,0.00012499999999999976
1483,0.3639174699783325,0.4786948263645172,0.95,0.83,0.00012499999999999976
1484,0.3639160394668579,0.478689581155777,0.95,0.83,0.00012499999999999976
1485,0.3639146685600281,0.4786890745162964,0.95,0.83,0.00012499999999999976
1486,0.36391326785087585,0.4786863327026367,0.95,0.83,0.00012499999999999976
1487,0.3639119863510132,0.47868338227272034,0.95,0.83,0.00012499999999999976
1488,0.3639105558395386,0.47868117690086365,0.95,0.83,0.00012499999999999976
1489,0.36390921473503113,0.47867828607559204,0.95,0.83,0.00012499999999999976
1490,0.36390793323516846,0.47867655754089355,0.95,0.83,0.00012499999999999976
1491,0.3639065623283386,0.47867587208747864,0.95,0.83,0.00012499999999999976
1492,0.3639052212238312,0.4786754846572876,0.95,0.83,0.00012499999999999976
1493,0.36390382051467896,0.47867587208747864,0.95,0.83,0.00012499999999999976
1494,0.3639024794101715,0.4786595106124878,0.95,0.83,0.00012499999999999976
1495,0.36390095949172974,0.4786592125892639,0.95,0.83,0.00012499999999999976
1496,0.3638996481895447,0.4786589443683624,0.95,0.83,0.00012499999999999976
1497,0.363898366689682,0.4786584973335266,0.95,0.83,0.00012499999999999976
1498,0.36389705538749695,0.4786600172519684,0.95,0.83,0.00012499999999999976
1499,0.3638957738876343,0.4786641597747803,0.95,0.83,0.00012499999999999976
1500,0.3638943135738373,0.4786638021469116,0.95,0.83,0.00012499999999999976
1501,0.363893061876297,0.47866252064704895,0.95,0.83,0.00012499999999999976
1502,0.3638917803764343,0.4786607027053833,0.95,0.83,0.00012499999999999976
1503,0.36389046907424927,0.4786567687988281,0.95,0.83,0.00012499999999999976
1504,0.36388927698135376,0.478654146194458,0.95,0.83,0.00012499999999999976
1505,0.3638879358768463,0.4786485433578491,0.95,0.83,0.00012499999999999976
1506,0.36388665437698364,0.47864237427711487,0.95,0.83,0.00012499999999999976
1507,0.36388537287712097,0.4786364734172821,0.95,0.83,0.00012499999999999976
1508,0.3638841211795807,0.47863128781318665,0.95,0.83,0.00012499999999999976
1509,0.363882839679718,0.47862598299980164,0.95,0.83,0.00012499999999999976
1510,0.36388155817985535,0.4786207973957062,0.95,0.83,0.00012499999999999976
1511,0.3638802468776703,0.4786161482334137,0.95,0.83,0.00012499999999999976
1512,0.36387893557548523,0.47861090302467346,0.95,0.83,0.00012499999999999976
1513,0.36387771368026733,0.47860389947891235,0.95,0.83,0.00012499999999999976
1514,0.36387646198272705,0.4785987436771393,0.95,0.83,0.00012499999999999976
1515,0.363875150680542,0.47858744859695435,0.95,0.83,0.00012499999999999976
1516,0.3638738989830017,0.4785856604576111,0.95,0.83,0.00012499999999999976
1517,0.3638727068901062,0.4785856008529663,0.95,0.83,0.00012499999999999976
1518,0.36387142539024353,0.478585422039032,0.95,0.83,0.00012499999999999976
1519,0.3638702630996704,0.47858479619026184,0.95,0.83,0.00012499999999999976
1520,0.3638691008090973,0.4785853922367096,0.95,0.83,0.00012499999999999976
1521,0.363867849111557,0.47858893871307373,0.95,0.83,0.00012499999999999976
1522,0.36386653780937195,0.47858813405036926,0.95,0.83,0.00012499999999999976
1523,0.36386528611183167,0.4785865545272827,0.95,0.83,0.00012499999999999976
1524,0.36386409401893616,0.47858726978302,0.95,0.83,0.00012499999999999976
1525,0.36386287212371826,0.478586345911026,0.95,0.83,0.00012499999999999976
1526,0.36386168003082275,0.47858744859695435,0.95,0.83,0.0001
1527,0.36386048793792725,0.47859111428260803,0.95,0.83,0.0001
1528,0.36385947465896606,0.4785882830619812,0.95,0.83,0.0001
1529,0.36385852098464966,0.47858601808547974,0.95,0.83,0.0001
1530,0.36385753750801086,0.47858184576034546,0.95,0.83,0.0001
1531,0.3638564944267273,0.4785774350166321,0.95,0.83,0.0001
1532,0.3638555109500885,0.47857144474983215,0.95,0.83,0.0001
1533,0.3638545870780945,0.47856563329696655,0.95,0.83,0.0001
1534,0.36385369300842285,0.4785597622394562,0.95,0.83,0.0001
1535,0.36385267972946167,0.4785534143447876,0.95,0.83,0.0001
1536,0.3638518154621124,0.4785485863685608,0.95,0.83,0.0001
1537,0.3638509511947632,0.47854387760162354,0.95,0.83,0.0001
1538,0.3638499975204468,0.47852185368537903,0.95,0.83,0.0001
1539,0.36384904384613037,0.47852009534835815,0.95,0.83,0.0001
1540,0.36384811997413635,0.47852104902267456,0.95,0.83,0.0001
1541,0.36384716629981995,0.4785209596157074,0.95,0.83,0.0001
1542,0.36384621262550354,0.4785236418247223,0.95,0.83,0.0001
1543,0.3638452887535095,0.4785274565219879,0.95,0.83,0.0001
1544,0.3638443648815155,0.4785293936729431,0.95,0.83,0.0001
1545,0.3638434112071991,0.4785374402999878,0.95,0.83,0.0001
1546,0.3638424575328827,0.4785389304161072,0.95,0.83,0.0001
1547,0.36384156346321106,0.47854018211364746,0.95,0.83,0.0001
1548,0.36384066939353943,0.47854167222976685,0.95,0.83,0.0001
1549,0.36383968591690063,0.47852614521980286,0.95,0.83,0.0001
1550,0.36383864283561707,0.4785262644290924,0.95,0.83,0.0001
1551,0.36383774876594543,0.4785274267196655,0.95,0.83,0.0001
1552,0.3638368248939514,0.4785284698009491,0.95,0.83,0.0001
1553,0.3638359010219574,0.47852927446365356,0.95,0.83,0.0001
1554,0.3638349771499634,0.47853079438209534,0.95,0.83,0.0001
1555,0.36383408308029175,0.4785307049751282,0.95,0.83,0.0001
1556,0.3638332784175873,0.47853097319602966,0.95,0.83,0.0001
1557,0.36383235454559326,0.4785318076610565,0.95,0.83,0.0001
1558,0.36383143067359924,0.47853174805641174,0.95,0.83,0.0001
1559,0.3638305366039276,0.4785305857658386,0.95,0.83,0.0001
1560,0.363829642534256,0.4785289466381073,0.95,0.83,0.0001
1561,0.36382874846458435,0.478527307510376,0.95,0.83,0.0001
1562,0.3638278841972351,0.47852516174316406,0.95,0.83,0.0001
1563,0.3638269901275635,0.47852206230163574,0.95,0.83,0.0001
1564,0.3638261556625366,0.4785224199295044,0.95,0.83,0.0001
1565,0.3638252019882202,0.47851988673210144,0.95,0.83,0.0001
1566,0.3638243079185486,0.4785151779651642,0.95,0.83,0.0001
1567,0.36382338404655457,0.47851046919822693,0.95,0.83,0.0001
1568,0.3638225793838501,0.4785069525241852,0.95,0.83,0.0001
1569,0.36382168531417847,0.4785061776638031,0.95,0.83,0.0001
1570,0.36382079124450684,0.4785037934780121,0.95,0.83,0.0001
1571,0.3638199269771576,0.4784928262233734,0.95,0.83,0.0001
1572,0.3638190031051636,0.4784889221191406,0.95,0.83,0.0001
1573,0.36381813883781433,0.478487104177475,0.95,0.83,0.0001
1574,0.3638172447681427,0.47848427295684814,0.95,0.83,0.0001
1575,0.36381641030311584,0.4784816801548004,0.95,0.83,0.0001
1576,0.363815575838089,0.47848111391067505,0.95,0.83,0.0001
1577,0.36381465196609497,0.47848132252693176,0.95,0.83,0.0001
1578,0.3638138473033905,0.4784849286079407,0.95,0.83,0.0001
1579,0.36381298303604126,0.47848498821258545,0.95,0.83,0.0001
1580,0.36381208896636963,0.47848522663116455,0.95,0.83,0.0001
1581,0.36381131410598755,0.4784846901893616,0.95,0.83,0.0001
1582,0.36381039023399353,0.4784843325614929,0.95,0.83,0.0001
1583,0.36380958557128906,0.4784834682941437,0.95,0.83,0.0001
1584,0.36380863189697266,0.47848403453826904,0.95,0.83,0.0001
1585,0.36380791664123535,0.47848591208457947,0.95,0.83,0.0001
1586,0.36380690336227417,0.47848618030548096,0.95,0.83,0.0001
1587,0.3638061583042145,0.47848400473594666,0.95,0.83,0.0001
1588,0.36380526423454285,0.47848254442214966,0.95,0.83,0.0001
1589,0.363804429769516,0.47848233580589294,0.95,0.83,0.0001
1590,0.36380359530448914,0.4784815311431885,0.95,0.83,0.0001
1591,0.3638027608394623,0.47847965359687805,0.95,0.83,0.0001
1592,0.3638019263744354,0.4784793555736542,0.95,0.83,0.0001
1593,0.36380112171173096,0.47847819328308105,0.95,0.83,0.0001
1594,0.3638002276420593,0.4784757196903229,0.95,0.83,0.0001
1595,0.36379945278167725,0.47847336530685425,0.95,0.83,0.0001
1596,0.3637986481189728,0.47847187519073486,0.95,0.83,0.0001
1597,0.3637978732585907,0.4784739315509796,0.95,0.83,0.0001
1598,0.36379700899124146,0.47847267985343933,0.95,0.83,0.0001
1599,0.3637961447238922,0.47847530245780945,0.95,0.83,0.0001
1600,0.36379531025886536,0.47847259044647217,0.95,0.83,0.0001
1601,0.3637945055961609,0.478469580411911,0.95,0.83,0.0001
1602,0.36379367113113403,0.47846728563308716,0.95,0.83,0.0001
1603,0.36379286646842957,0.4784722626209259,0.95,0.83,0.0001
1604,0.3637920320034027,0.47846928238868713,0.95,0.83,0.0001
1605,0.363791286945343,0.47846630215644836,0.95,0.83,0.0001
1606,0.363790363073349,0.4784649610519409,0.95,0.83,0.0001
1607,0.36378955841064453,0.47846218943595886,0.95,0.83,0.0001
1608,0.36378878355026245,0.4784581661224365,0.95,0.83,0.0001
1609,0.36378803849220276,0.47845569252967834,0.95,0.83,0.0001
1610,0.36378714442253113,0.4784516394138336,0.95,0.83,0.0001
1611,0.36378633975982666,0.47845038771629333,0.95,0.83,0.0001
1612,0.3637855648994446,0.4784287214279175,0.95,0.83,0.0001
1613,0.36378464102745056,0.4784291386604309,0.95,0.83,0.0001
1614,0.3637838363647461,0.4784260094165802,0.95,0.83,0.0001
1615,0.3637829124927521,0.47842901945114136,0.95,0.83,0.0001
1616,0.3637821674346924,0.4784330725669861,0.95,0.83,0.0001
1617,0.36378127336502075,0.47843635082244873,0.95,0.83,0.0001
1618,0.36378055810928345,0.4784401059150696,0.95,0.83,0.0001
1619,0.36377984285354614,0.47844406962394714,0.95,0.83,0.0001
1620,0.3637790381908417,0.47844746708869934,0.95,0.83,0.0001
1621,0.3637782335281372,0.4784536063671112,0.95,0.83,0.0001
1622,0.3637773394584656,0.47845718264579773,0.95,0.83,0.0001
1623,0.36377662420272827,0.47845977544784546,0.95,0.83,0.0001
1624,0.3637758493423462,0.47846102714538574,0.95,0.83,0.0001
1625,0.3637751042842865,0.4784623384475708,0.95,0.83,0.0001
1626,0.36377429962158203,0.47846293449401855,0.95,0.83,0.0001
1627,0.36377352476119995,0.47846293449401855,0.95,0.83,0.0001
1628,0.36377277970314026,0.47846144437789917,0.95,0.83,0.0001
1629,0.3637720048427582,0.4784581661224365,0.95,0.83,0.0001
1630,0.36377131938934326,0.47845640778541565,0.95,0.83,0.0001
1631,0.3637704849243164,0.47845423221588135,0.95,0.83,0.0001
1632,0.3637697994709015,0.47845259308815,0.95,0.83,0.0001
1633,0.36376896500587463,0.4784509241580963,0.95,0.83,0.0001
1634,0.36376816034317017,0.47844481468200684,0.95,0.83,0.0001
1635,0.3637673556804657,0.4784412384033203,0.95,0.83,0.0001
1636,0.3637666702270508,0.4784387946128845,0.95,0.83,0.0001
1637,0.3637658953666687,0.47843655943870544,0.95,0.83,0.0001
1638,0.3637651205062866,0.47843337059020996,0.95,0.83,0.0001
1639,0.36376434564590454,0.4784390926361084,0.95,0.83,0.0001
1640,0.36376363039016724,0.4784398376941681,0.95,0.83,0.0001
1641,0.36376288533210754,0.47843649983406067,0.95,0.83,0.0001
1642,0.36376214027404785,0.4784349203109741,0.95,0.83,0.0001
1643,0.3637613356113434,0.47843441367149353,0.95,0.83,0.0001
1644,0.3637605309486389,0.4784320592880249,0.95,0.83,0.0001
1645,0.3637598156929016,0.4784390330314636,0.95,0.83,0.0001
1646,0.36375901103019714,0.4784371852874756,0.95,0.83,0.0001
1647,0.3637583255767822,0.4784347116947174,0.95,0.83,0.0001
1648,0.36375758051872253,0.4784335196018219,0.95,0.83,0.0001
1649,0.36375683546066284,0.4784311354160309,0.95,0.83,0.0001
1650,0.36375606060028076,0.478429913520813,0.95,0.83,0.0001
1651,0.36375534534454346,0.47842827439308167,0.95,0.83,0.0001
1652,0.36375463008880615,0.47842735052108765,0.95,0.83,0.0001
1653,0.36375388503074646,0.4784296154975891,0.95,0.83,0.0001
1654,0.36375313997268677,0.478428453207016,0.95,0.83,0.0001
1655,0.3637523949146271,0.47841742634773254,0.95,0.83,0.0001
1656,0.36375176906585693,0.4784167408943176,0.95,0.83,0.0001
1657,0.36375096440315247,0.4784153699874878,0.95,0.83,0.0001
1658,0.3637502193450928,0.4784153997898102,0.95,0.83,0.0001
1659,0.36374953389167786,0.4784160256385803,0.95,0.83,0.0001
1660,0.36374884843826294,0.47841471433639526,0.95,0.83,0.0001
1661,0.36374810338020325,0.47841721773147583,0.95,0.83,0.0001
1662,0.36374735832214355,0.47841668128967285,0.95,0.83,0.0001
1663,0.36374664306640625,0.47841915488243103,0.95,0.83,0.0001
1664,0.36374595761299133,0.47842055559158325,0.95,0.83,0.0001
1665,0.36374518275260925,0.47842106223106384,0.95,0.83,0.0001
1666,0.36374449729919434,0.47842466831207275,0.95,0.83,0.0001
1667,0.36374375224113464,0.4784277081489563,0.95,0.83,0.0001
1668,0.36374300718307495,0.47842884063720703,0.95,0.83,0.0001
1669,0.3637423813343048,0.4784287214279175,0.95,0.83,0.0001
1670,0.3637416362762451,0.47842922806739807,0.95,0.83,0.0001
1671,0.363741010427475,0.47842761874198914,0.95,0.83,0.0001
1672,0.3637402355670929,0.47842663526535034,0.95,0.83,0.0001
1673,0.36373957991600037,0.478425532579422,0.95,0.83,0.0001
1674,0.36373889446258545,0.47842538356781006,0.95,0.83,0.0001
1675,0.36373820900917053,0.4784022569656372,0.95,0.83,0.0001
1676,0.3637373447418213,0.4784022271633148,0.95,0.83,0.0001
1677,0.36373665928840637,0.47840675711631775,0.95,0.83,0.0001
1678,0.3637358546257019,0.4784083068370819,0.95,0.83,0.0001
1679,0.3637351989746094,0.47841063141822815,0.95,0.83,0.0001
1680,0.36373451352119446,0.47841334342956543,0.95,0.83,0.0001
1681,0.36373385787010193,0.4784156084060669,0.95,0.83,0.0001
1682,0.36373311281204224,0.47841915488243103,0.95,0.83,0.0001
1683,0.3637324869632721,0.4784223437309265,0.95,0.83,0.0001
1684,0.3637317419052124,0.47842544317245483,0.95,0.83,0.0001
1685,0.3637309968471527,0.4784274399280548,0.95,0.83,0.0001
1686,0.3637303411960602,0.4784300625324249,0.95,0.83,0.0001
1687,0.36372971534729004,0.4784426987171173,0.95,0.83,0.0001
1688,0.3637290298938751,0.47844284772872925,0.95,0.83,0.0001
1689,0.36372825503349304,0.47844353318214417,0.95,0.83,0.0001
1690,0.3637275993824005,0.4784412682056427,0.95,0.83,0.0001
1691,0.3637268543243408,0.47844088077545166,0.95,0.83,0.0001
1692,0.36372625827789307,0.4784378111362457,0.95,0.83,0.0001
1693,0.36372554302215576,0.4784335792064667,0.95,0.83,0.0001
1694,0.36372488737106323,0.4784289598464966,0.95,0.83,0.0001
