,train loss,val loss,train acc,val acc,lr
0,0.6793224811553955,0.6652061343193054,0.7,0.64,0.001
1,0.6653280854225159,0.6524165272712708,0.69,0.64,0.001
2,0.6483142375946045,0.6388009786605835,0.68,0.65,0.001
3,0.630473256111145,0.6260603666305542,0.7,0.65,0.001
4,0.6004377603530884,0.6211001873016357,0.7,0.65,0.001
5,0.5934783220291138,0.6192620992660522,0.68,0.65,0.001
6,0.5814262628555298,0.6036484241485596,0.68,0.66,0.001
7,0.5684512257575989,0.5915738940238953,0.72,0.72,0.001
8,0.5651466846466064,0.5895570516586304,0.76,0.74,0.001
9,0.5548028349876404,0.581748366355896,0.76,0.72,0.001
10,0.537179172039032,0.5792094469070435,0.77,0.73,0.001
11,0.5326038002967834,0.5748050808906555,0.78,0.73,0.001
12,0.5296961665153503,0.570564329624176,0.78,0.73,0.001
13,0.5218155980110168,0.5746942758560181,0.77,0.73,0.001
14,0.5298973321914673,0.5610592365264893,0.81,0.73,0.001
15,0.5145336985588074,0.5629393458366394,0.77,0.73,0.001
16,0.5246398448944092,0.5611298084259033,0.78,0.74,0.001
17,0.52555912733078,0.5539465546607971,0.78,0.75,0.001
18,0.5092117190361023,0.5492321252822876,0.78,0.77,0.001
19,0.49247342348098755,0.5571959018707275,0.81,0.75,0.001
20,0.510405957698822,0.5476402640342712,0.84,0.76,0.001
21,0.48806723952293396,0.5446426272392273,0.82,0.76,0.001
22,0.47982996702194214,0.544844388961792,0.82,0.76,0.001
23,0.48716050386428833,0.5442510843276978,0.83,0.76,0.001
24,0.4870854914188385,0.542549192905426,0.83,0.77,0.001
25,0.48122769594192505,0.5409762859344482,0.83,0.77,0.001
26,0.4752669632434845,0.540641725063324,0.86,0.77,0.001
27,0.4760483205318451,0.538692831993103,0.84,0.77,0.001
28,0.4755927324295044,0.5346124768257141,0.84,0.79,0.001
29,0.46877217292785645,0.5298460125923157,0.86,0.78,0.001
30,0.46538031101226807,0.5284334421157837,0.87,0.79,0.001
31,0.46326595544815063,0.5307833552360535,0.86,0.79,0.001
32,0.45370161533355713,0.5346229076385498,0.88,0.77,0.001
33,0.45443665981292725,0.5374608039855957,0.87,0.77,0.001
34,0.4519067406654358,0.5389924049377441,0.89,0.77,0.001
35,0.45377323031425476,0.5393998622894287,0.87,0.76,0.001
36,0.4387110769748688,0.5352912545204163,0.87,0.77,0.001
37,0.4428102374076843,0.5300109386444092,0.86,0.79,0.001
38,0.44910871982574463,0.5313728451728821,0.87,0.78,0.001
39,0.4560496509075165,0.530276358127594,0.86,0.79,0.001
40,0.4416387677192688,0.5264555811882019,0.88,0.78,0.001
41,0.4436258375644684,0.5242636799812317,0.86,0.78,0.001
42,0.43844130635261536,0.524304211139679,0.88,0.79,0.001
43,0.4345342516899109,0.5211788415908813,0.89,0.79,0.001
44,0.4334224462509155,0.5239883661270142,0.88,0.79,0.001
45,0.4311455488204956,0.5287561416625977,0.88,0.79,0.001
46,0.4325321316719055,0.5277428030967712,0.88,0.79,0.001
47,0.42978155612945557,0.523658037185669,0.89,0.78,0.001
48,0.4272632300853729,0.5200557708740234,0.9,0.78,0.001
49,0.42733219265937805,0.5175053477287292,0.89,0.8,0.001
50,0.4339487850666046,0.5153055191040039,0.89,0.79,0.001
51,0.4256044030189514,0.5139386653900146,0.9,0.8,0.001
52,0.42418742179870605,0.5151689052581787,0.89,0.8,0.001
53,0.4290589988231659,0.5141168236732483,0.89,0.8,0.001
54,0.4225553870201111,0.519680917263031,0.9,0.79,0.001
55,0.4250621795654297,0.5144342184066772,0.89,0.81,0.001
56,0.4260441064834595,0.5168258547782898,0.89,0.79,0.001
57,0.43253424763679504,0.5143885612487793,0.89,0.8,0.001
58,0.42219460010528564,0.5191702246665955,0.9,0.79,0.001
59,0.4271704852581024,0.5203089118003845,0.89,0.79,0.001
60,0.4197879135608673,0.5284641981124878,0.9,0.76,0.001
61,0.42128533124923706,0.5353406667709351,0.9,0.77,0.001
62,0.43056198954582214,0.5328305959701538,0.89,0.77,0.001
63,0.42188864946365356,0.5267868638038635,0.9,0.78,0.001
64,0.42360949516296387,0.5226463079452515,0.89,0.78,0.001
65,0.4217524230480194,0.5201663374900818,0.9,0.79,0.001
66,0.4184907078742981,0.5157036185264587,0.9,0.79,0.001
67,0.4200138747692108,0.5077813863754272,0.9,0.81,0.001
68,0.41895902156829834,0.5072488784790039,0.9,0.81,0.001
69,0.41535672545433044,0.5100849270820618,0.9,0.8,0.001
70,0.41670218110084534,0.5072451829910278,0.9,0.81,0.001
71,0.41896170377731323,0.5089020729064941,0.89,0.8,0.001
72,0.41526341438293457,0.5124287605285645,0.9,0.8,0.001
73,0.41649338603019714,0.5100396275520325,0.9,0.8,0.001
74,0.41552475094795227,0.5075305104255676,0.9,0.8,0.001
75,0.41756346821784973,0.516888439655304,0.9,0.79,0.001
76,0.4174930453300476,0.5131338238716125,0.9,0.79,0.001
77,0.42007577419281006,0.5205777883529663,0.9,0.79,0.001
78,0.4179566204547882,0.5216308236122131,0.9,0.79,0.001
79,0.41687527298927307,0.5061798691749573,0.9,0.81,0.001
80,0.4173612594604492,0.504848301410675,0.89,0.81,0.001
81,0.41999611258506775,0.5150648951530457,0.9,0.79,0.001
82,0.4152013659477234,0.5222153067588806,0.9,0.79,0.001
83,0.41896823048591614,0.5169772505760193,0.9,0.79,0.001
84,0.41737040877342224,0.5054856538772583,0.9,0.82,0.001
85,0.41685208678245544,0.5060403943061829,0.9,0.81,0.001
86,0.41853582859039307,0.5180962085723877,0.9,0.79,0.001
87,0.4151708483695984,0.5267552137374878,0.9,0.79,0.001
88,0.42240145802497864,0.5194526314735413,0.89,0.79,0.001
89,0.41587191820144653,0.5123363733291626,0.9,0.8,0.001
90,0.41684868931770325,0.517690896987915,0.9,0.79,0.001
91,0.41575467586517334,0.5313491225242615,0.9,0.77,0.001
92,0.4204552173614502,0.5190126299858093,0.89,0.79,0.001
93,0.4155083894729614,0.5153132677078247,0.9,0.8,0.001
94,0.4171285927295685,0.518621027469635,0.9,0.8,0.001
95,0.4155619442462921,0.5284179449081421,0.9,0.78,0.001
96,0.4147198796272278,0.5318584442138672,0.9,0.78,0.001
97,0.41980597376823425,0.5265453457832336,0.9,0.77,0.001
98,0.41412028670310974,0.523358941078186,0.9,0.79,0.001
99,0.41488882899284363,0.5269319415092468,0.9,0.77,0.001
100,0.4112434387207031,0.5337257981300354,0.9,0.78,0.001
101,0.4108089208602905,0.536125898361206,0.9,0.78,0.001
102,0.40925219655036926,0.529629111289978,0.91,0.79,0.001
103,0.41441571712493896,0.5285484194755554,0.9,0.78,0.001
104,0.41764122247695923,0.5261297225952148,0.9,0.79,0.001
105,0.4108867645263672,0.5297966003417969,0.9,0.78,0.001
106,0.4090898633003235,0.5301554799079895,0.9,0.78,0.001
107,0.4110082983970642,0.5328207015991211,0.9,0.78,0.001
108,0.4220917224884033,0.5237833261489868,0.9,0.78,0.001
109,0.4417818784713745,0.5227206349372864,0.86,0.78,0.001
110,0.4323917627334595,0.5152609348297119,0.88,0.8,0.001
111,0.4157257378101349,0.5199588537216187,0.9,0.8,0.001
112,0.4432874023914337,0.5292484760284424,0.87,0.77,0.001
113,0.40392783284187317,0.5181736350059509,0.91,0.79,0.001
114,0.42498302459716797,0.5180605053901672,0.88,0.79,0.001
115,0.43102893233299255,0.5133577585220337,0.88,0.8,0.001
116,0.41626545786857605,0.5409582257270813,0.9,0.76,0.001
117,0.42420729994773865,0.539573609828949,0.89,0.77,0.001
118,0.43689045310020447,0.5327990651130676,0.87,0.78,0.001
119,0.428200900554657,0.5198013782501221,0.89,0.79,0.001
120,0.42439135909080505,0.5179286003112793,0.88,0.79,0.001
121,0.42591381072998047,0.5342407822608948,0.88,0.77,0.001
122,0.41918233036994934,0.5260912179946899,0.89,0.78,0.001
123,0.42701926827430725,0.5249189138412476,0.89,0.78,0.001
124,0.4217853546142578,0.5274741649627686,0.89,0.78,0.001
125,0.4129137098789215,0.5308532118797302,0.91,0.76,0.001
126,0.4122295081615448,0.524768590927124,0.89,0.77,0.001
127,0.4115677773952484,0.5122485756874084,0.9,0.79,0.001
128,0.4063856899738312,0.5116870999336243,0.91,0.81,0.001
129,0.40758028626441956,0.5171422958374023,0.91,0.79,0.001
130,0.40479710698127747,0.5124872326850891,0.91,0.81,0.001
131,0.3985734283924103,0.5109291672706604,0.92,0.8,0.001
132,0.3968833088874817,0.5081589221954346,0.92,0.81,0.001
133,0.40322884917259216,0.5052910447120667,0.91,0.81,0.001
134,0.40284019708633423,0.5072692632675171,0.91,0.8,0.001
135,0.39720839262008667,0.5102293491363525,0.92,0.8,0.001
136,0.3992278277873993,0.5075775980949402,0.91,0.81,0.001
137,0.4013681709766388,0.5038395524024963,0.91,0.81,0.001
138,0.40023407340049744,0.5064581036567688,0.91,0.8,0.001
139,0.40348824858665466,0.5031626224517822,0.91,0.81,0.001
140,0.3964434862136841,0.5040382146835327,0.92,0.81,0.001
141,0.3980731666088104,0.5068911910057068,0.92,0.81,0.001
142,0.39562997221946716,0.509577751159668,0.92,0.81,0.001
143,0.3992135524749756,0.5079681277275085,0.91,0.81,0.001
144,0.39776936173439026,0.5173763632774353,0.92,0.8,0.001
145,0.40115368366241455,0.5087826251983643,0.92,0.81,0.001
146,0.3947245478630066,0.5067862868309021,0.92,0.8,0.001
147,0.3952775299549103,0.5086275339126587,0.92,0.81,0.001
148,0.3994961082935333,0.5132131576538086,0.91,0.8,0.001
149,0.39559489488601685,0.5171270966529846,0.92,0.8,0.001
150,0.3968212902545929,0.5200958251953125,0.92,0.8,0.001
151,0.3985276520252228,0.5197740793228149,0.92,0.79,0.001
152,0.39568638801574707,0.5198804140090942,0.92,0.79,0.001
153,0.39819610118865967,0.5199460387229919,0.92,0.79,0.001
154,0.39604446291923523,0.5199957489967346,0.92,0.79,0.001
155,0.3947986960411072,0.5194294452667236,0.92,0.79,0.001
156,0.3939245343208313,0.5188658237457275,0.92,0.79,0.001
157,0.39549338817596436,0.5180796980857849,0.92,0.8,0.001
158,0.39427652955055237,0.5181305408477783,0.92,0.8,0.001
159,0.3935409188270569,0.523973286151886,0.92,0.79,0.001
160,0.3943813443183899,0.5258898735046387,0.92,0.79,0.001
161,0.39534133672714233,0.5174492001533508,0.92,0.8,0.001
162,0.3956364691257477,0.5202378630638123,0.92,0.79,0.001
163,0.3952120542526245,0.5171806216239929,0.92,0.8,0.001
164,0.3899485468864441,0.5157957673072815,0.92,0.8,0.001
165,0.3943609297275543,0.5116400718688965,0.92,0.8,0.001
166,0.39443787932395935,0.5066258907318115,0.92,0.81,0.001
167,0.3951354920864105,0.5065794587135315,0.92,0.81,0.001
168,0.39417052268981934,0.5062764883041382,0.92,0.81,0.001
169,0.3967733681201935,0.5058059096336365,0.92,0.81,0.001
170,0.3931806683540344,0.5044888854026794,0.92,0.81,0.001
171,0.3941889703273773,0.5030593276023865,0.92,0.81,0.001
172,0.39467135071754456,0.5019704699516296,0.92,0.81,0.001
173,0.3950797915458679,0.5012764930725098,0.92,0.82,0.001
174,0.3940524160861969,0.5153419375419617,0.92,0.8,0.001
175,0.39326003193855286,0.5137037634849548,0.92,0.8,0.001
176,0.38964706659317017,0.5016645193099976,0.93,0.82,0.001
177,0.39375290274620056,0.5165916681289673,0.92,0.79,0.001
178,0.39426884055137634,0.5187852382659912,0.92,0.79,0.001
179,0.4100112020969391,0.4995863735675812,0.9,0.82,0.001
180,0.39486512541770935,0.504924476146698,0.92,0.8,0.001
181,0.3870004713535309,0.5038852095603943,0.93,0.82,0.001
182,0.39388012886047363,0.5188182592391968,0.92,0.79,0.001
183,0.41124221682548523,0.5220066905021667,0.89,0.79,0.001
184,0.38537082076072693,0.5320170521736145,0.93,0.78,0.001
185,0.4088611602783203,0.5313069820404053,0.9,0.78,0.001
186,0.4303433895111084,0.5290238261222839,0.88,0.78,0.001
187,0.4067147970199585,0.524615466594696,0.91,0.78,0.001
188,0.3918040990829468,0.5075010061264038,0.92,0.8,0.001
189,0.3945842683315277,0.5039157867431641,0.92,0.81,0.001
190,0.4093484580516815,0.5049465298652649,0.9,0.81,0.001
191,0.4139644503593445,0.5083779692649841,0.89,0.8,0.001
192,0.40446150302886963,0.5105265974998474,0.91,0.8,0.001
193,0.3960151672363281,0.5086746215820312,0.92,0.8,0.001
194,0.3938954174518585,0.5065693855285645,0.92,0.81,0.001
195,0.39367732405662537,0.5146729350090027,0.92,0.8,0.001
196,0.38465967774391174,0.5260959267616272,0.93,0.78,0.001
197,0.40743836760520935,0.5281042456626892,0.91,0.78,0.001
198,0.40517809987068176,0.5218034982681274,0.9,0.78,0.001
199,0.3905244767665863,0.5104162693023682,0.93,0.8,0.001
200,0.38741782307624817,0.5116015076637268,0.93,0.8,0.001
201,0.3955749571323395,0.5121649503707886,0.91,0.8,0.001
202,0.38664305210113525,0.5215800404548645,0.93,0.79,0.001
203,0.3904988467693329,0.5222534537315369,0.92,0.79,0.001
204,0.38659176230430603,0.5212457180023193,0.93,0.79,0.001
205,0.3876681625843048,0.5159742832183838,0.93,0.8,0.001
206,0.39640888571739197,0.5201436877250671,0.92,0.79,0.001
207,0.3914785385131836,0.5035751461982727,0.93,0.81,0.001
208,0.3924940228462219,0.5021176934242249,0.92,0.81,0.001
209,0.39228248596191406,0.5061286687850952,0.92,0.81,0.001
210,0.3948226869106293,0.505950927734375,0.91,0.81,0.001
211,0.38735857605934143,0.516484797000885,0.93,0.8,0.001
212,0.3856927156448364,0.524922788143158,0.93,0.79,0.001
213,0.3841129243373871,0.5367457866668701,0.93,0.76,0.001
214,0.3973357677459717,0.5491312146186829,0.92,0.76,0.001
215,0.4132634699344635,0.5366961359977722,0.9,0.77,0.001
216,0.40047329664230347,0.5136289596557617,0.92,0.81,0.001
217,0.3919256925582886,0.5139256715774536,0.93,0.8,0.001
218,0.38626810908317566,0.530286431312561,0.93,0.78,0.001
219,0.38482436537742615,0.5445210933685303,0.92,0.76,0.001
220,0.4381483495235443,0.5325039029121399,0.87,0.77,0.001
221,0.4392603635787964,0.5087494850158691,0.87,0.81,0.001
222,0.40557360649108887,0.5092053413391113,0.9,0.8,0.001
223,0.41556933522224426,0.5069907307624817,0.89,0.81,0.001
224,0.4127393662929535,0.5122960209846497,0.89,0.8,0.001
225,0.41325390338897705,0.5122682452201843,0.89,0.8,0.001
226,0.40274548530578613,0.5009299516677856,0.91,0.81,0.001
227,0.3891735374927521,0.5045642852783203,0.93,0.81,0.001
228,0.3873734176158905,0.5269225835800171,0.93,0.78,0.001
229,0.39717787504196167,0.511405348777771,0.91,0.79,0.001
230,0.3850233554840088,0.5297724008560181,0.93,0.78,0.001
231,0.4073267877101898,0.5364184379577637,0.9,0.77,0.001
232,0.41943860054016113,0.5359907150268555,0.89,0.77,0.001
233,0.4205039143562317,0.5245017409324646,0.9,0.79,0.001
234,0.4025548994541168,0.5063720941543579,0.91,0.8,0.001
235,0.39653870463371277,0.49359869956970215,0.92,0.82,0.001
236,0.4008435010910034,0.49573084712028503,0.91,0.82,0.001
237,0.3992215692996979,0.4968225061893463,0.91,0.82,0.001
238,0.3997509777545929,0.5015591979026794,0.92,0.82,0.001
239,0.3940013647079468,0.5079048871994019,0.92,0.81,0.001
240,0.3958202004432678,0.507713258266449,0.92,0.81,0.001
241,0.39625969529151917,0.5072351694107056,0.92,0.82,0.001
242,0.4138530492782593,0.5074463486671448,0.9,0.81,0.001
243,0.41427603363990784,0.5068050622940063,0.9,0.81,0.001
244,0.4053991734981537,0.5082749128341675,0.91,0.81,0.001
245,0.41161319613456726,0.5089629292488098,0.9,0.8,0.001
246,0.40455111861228943,0.5090015530586243,0.91,0.79,0.001
247,0.4069288671016693,0.5090932250022888,0.91,0.8,0.001
248,0.40525078773498535,0.508220374584198,0.91,0.8,0.001
249,0.40789881348609924,0.5107933282852173,0.91,0.79,0.001
250,0.40967169404029846,0.512319803237915,0.91,0.8,0.001
251,0.40893980860710144,0.5119187831878662,0.9,0.8,0.001
252,0.42026686668395996,0.5121820569038391,0.89,0.8,0.001
253,0.4036155343055725,0.5086633563041687,0.91,0.8,0.001
254,0.40786227583885193,0.5094196200370789,0.91,0.8,0.001
255,0.40548598766326904,0.5077535510063171,0.91,0.81,0.001
256,0.40382274985313416,0.5135851502418518,0.91,0.8,0.001
257,0.40361323952674866,0.5148626565933228,0.91,0.8,0.001
258,0.39515599608421326,0.5176922082901001,0.92,0.79,0.001
259,0.3964582085609436,0.5190542340278625,0.92,0.79,0.001
260,0.39421889185905457,0.519008457660675,0.92,0.79,0.001
261,0.38899025321006775,0.5186586380004883,0.93,0.79,0.001
262,0.38765618205070496,0.516895055770874,0.93,0.79,0.001
263,0.38413509726524353,0.5150643587112427,0.93,0.8,0.001
264,0.3842296600341797,0.514981746673584,0.93,0.8,0.001
265,0.38363760709762573,0.5165215730667114,0.93,0.8,0.001
266,0.3847690224647522,0.5191282033920288,0.93,0.79,0.001
267,0.38426440954208374,0.5200893878936768,0.93,0.79,0.001
268,0.38653048872947693,0.5191841125488281,0.93,0.79,0.001
269,0.38449615240097046,0.5187503695487976,0.93,0.79,0.001
270,0.38517361879348755,0.5208325386047363,0.93,0.79,0.001
271,0.38383710384368896,0.513008713722229,0.93,0.8,0.001
272,0.38363006711006165,0.5089135766029358,0.93,0.8,0.001
273,0.38514968752861023,0.5055227875709534,0.93,0.81,0.001
274,0.3835645914077759,0.5034996271133423,0.93,0.81,0.001
275,0.38315442204475403,0.5022504329681396,0.93,0.82,0.001
276,0.3819482922554016,0.505915641784668,0.93,0.8,0.001
277,0.37797871232032776,0.5121757984161377,0.94,0.8,0.001
278,0.3844425082206726,0.5114026069641113,0.92,0.8,0.001
279,0.3751083314418793,0.504489541053772,0.94,0.8,0.001
280,0.37427014112472534,0.49674999713897705,0.94,0.81,0.001
281,0.37342512607574463,0.49555057287216187,0.94,0.81,0.001
282,0.37485969066619873,0.49696993827819824,0.94,0.82,0.001
283,0.37894001603126526,0.5001479983329773,0.93,0.8,0.001
284,0.3825499713420868,0.4994412660598755,0.93,0.81,0.001
285,0.3765794038772583,0.4980260729789734,0.93,0.81,0.001
286,0.37046879529953003,0.49799811840057373,0.94,0.81,0.001
287,0.37446296215057373,0.49871981143951416,0.94,0.81,0.001
288,0.37577712535858154,0.5087868571281433,0.94,0.8,0.001
289,0.3725377023220062,0.5115753412246704,0.94,0.8,0.001
290,0.38505423069000244,0.507903516292572,0.92,0.8,0.001
291,0.3848915100097656,0.5237927436828613,0.93,0.79,0.001
292,0.4057629108428955,0.5194280743598938,0.91,0.79,0.001
293,0.41798049211502075,0.5199762582778931,0.9,0.79,0.001
294,0.4185977876186371,0.5233156681060791,0.9,0.79,0.001
295,0.41579878330230713,0.5213261246681213,0.9,0.78,0.001
296,0.41472941637039185,0.5128023624420166,0.9,0.79,0.001
297,0.4059416651725769,0.5039918422698975,0.9,0.82,0.001
298,0.40357163548469543,0.5091677904129028,0.91,0.8,0.001
299,0.4024413228034973,0.5059510469436646,0.91,0.8,0.001
300,0.39900538325309753,0.502692461013794,0.92,0.81,0.001
301,0.411579966545105,0.5028396844863892,0.9,0.82,0.001
302,0.4235891103744507,0.5034282207489014,0.89,0.82,0.001
303,0.41694018244743347,0.5097441077232361,0.9,0.82,0.001
304,0.40672484040260315,0.510216236114502,0.91,0.8,0.001
305,0.4074767231941223,0.5054733157157898,0.91,0.81,0.001
306,0.4101089537143707,0.5057459473609924,0.91,0.8,0.001
307,0.40697574615478516,0.5066714286804199,0.91,0.81,0.001
308,0.4038446843624115,0.5080444812774658,0.91,0.8,0.001
309,0.39661064743995667,0.5065865516662598,0.92,0.8,0.001
310,0.39712947607040405,0.49843162298202515,0.92,0.82,0.001
311,0.4007916748523712,0.4980286657810211,0.91,0.81,0.001
312,0.3963998854160309,0.499038964509964,0.92,0.81,0.001
313,0.39520344138145447,0.49949637055397034,0.92,0.81,0.001
314,0.3975770175457001,0.49950680136680603,0.92,0.81,0.001
315,0.3962421417236328,0.49954015016555786,0.92,0.81,0.001
316,0.395860493183136,0.4992504417896271,0.92,0.82,0.001
317,0.39480412006378174,0.4909107983112335,0.92,0.83,0.001
318,0.39462199807167053,0.4993276596069336,0.92,0.82,0.001
319,0.4016152620315552,0.499372661113739,0.91,0.82,0.001
320,0.39511409401893616,0.49507594108581543,0.92,0.82,0.001
321,0.39353737235069275,0.4990340769290924,0.92,0.81,0.001
322,0.3938150703907013,0.4995214343070984,0.92,0.81,0.001
323,0.3968062102794647,0.4982786476612091,0.92,0.82,0.001
324,0.3951369822025299,0.4973173141479492,0.92,0.82,0.001
325,0.3949427008628845,0.4991041421890259,0.92,0.82,0.001
326,0.3966837227344513,0.49535834789276123,0.92,0.82,0.001
327,0.39422208070755005,0.49463871121406555,0.92,0.82,0.001
328,0.3941338360309601,0.48512881994247437,0.92,0.83,0.001
329,0.39482733607292175,0.48431041836738586,0.92,0.83,0.001
330,0.39757874608039856,0.4845210909843445,0.92,0.83,0.001
331,0.39612242579460144,0.4844512641429901,0.92,0.83,0.001
332,0.39379119873046875,0.48446786403656006,0.92,0.83,0.001
333,0.39605823159217834,0.4850952625274658,0.92,0.83,0.001
334,0.39373794198036194,0.48715054988861084,0.92,0.83,0.001
335,0.394571453332901,0.4903002679347992,0.92,0.82,0.001
336,0.3936126232147217,0.492827445268631,0.92,0.82,0.001
337,0.39442378282546997,0.4940582513809204,0.92,0.81,0.001
338,0.39403975009918213,0.49498695135116577,0.92,0.81,0.001
339,0.393884539604187,0.49578961730003357,0.92,0.81,0.001
340,0.39569035172462463,0.4960176944732666,0.92,0.81,0.001
341,0.3937954008579254,0.4957702159881592,0.92,0.81,0.001
342,0.3932083249092102,0.49505290389060974,0.92,0.81,0.001
343,0.39419934153556824,0.49409934878349304,0.92,0.82,0.001
344,0.3938049077987671,0.4932507574558258,0.92,0.82,0.001
345,0.3939237892627716,0.4926271140575409,0.92,0.82,0.001
346,0.39392200112342834,0.49229979515075684,0.92,0.82,0.001
347,0.3942755162715912,0.49285995960235596,0.92,0.82,0.001
348,0.3951409161090851,0.49380624294281006,0.92,0.82,0.001
349,0.3936796188354492,0.4938098192214966,0.92,0.82,0.001
350,0.39443668723106384,0.49286356568336487,0.92,0.82,0.001
351,0.39367052912712097,0.49191907048225403,0.92,0.82,0.001
352,0.39370840787887573,0.4912711977958679,0.92,0.82,0.001
353,0.39487746357917786,0.49088218808174133,0.92,0.82,0.001
354,0.3935750722885132,0.4907546937465668,0.92,0.82,0.001
355,0.39377766847610474,0.4905807375907898,0.92,0.82,0.001
356,0.39363735914230347,0.49017268419265747,0.92,0.82,0.001
357,0.39340683817863464,0.48976603150367737,0.92,0.82,0.001
358,0.39372363686561584,0.4891543984413147,0.92,0.82,0.001
359,0.39358556270599365,0.4884484112262726,0.92,0.83,0.001
360,0.39363330602645874,0.4875102937221527,0.92,0.83,0.001
361,0.39418891072273254,0.4865272641181946,0.92,0.83,0.001
362,0.39347678422927856,0.4858775734901428,0.92,0.83,0.001
363,0.39358556270599365,0.4856109619140625,0.92,0.83,0.001
364,0.3935263752937317,0.48548179864883423,0.92,0.83,0.001
365,0.3939211666584015,0.48547038435935974,0.92,0.83,0.001
366,0.39354151487350464,0.485545814037323,0.92,0.83,0.001
367,0.3938729166984558,0.48575836420059204,0.92,0.83,0.001
368,0.3940662443637848,0.48709335923194885,0.92,0.83,0.001
369,0.39467665553092957,0.49389514327049255,0.92,0.82,0.001
370,0.393503338098526,0.4965019226074219,0.92,0.82,0.001
371,0.3935442268848419,0.49737292528152466,0.92,0.82,0.001
372,0.39349842071533203,0.4981088638305664,0.92,0.82,0.001
373,0.39343518018722534,0.4987354576587677,0.92,0.82,0.001
374,0.393395334482193,0.499325156211853,0.92,0.82,0.001
375,0.39350003004074097,0.4999252259731293,0.92,0.81,0.001
376,0.3935178518295288,0.5002992153167725,0.92,0.82,0.001
377,0.3934963345527649,0.5006773471832275,0.92,0.82,0.001
378,0.3934769928455353,0.5010333061218262,0.92,0.81,0.001
379,0.39426568150520325,0.5012762546539307,0.92,0.81,0.001
380,0.3935992121696472,0.5015408396720886,0.92,0.81,0.001
381,0.3934066891670227,0.5017998218536377,0.92,0.81,0.001
382,0.39344361424446106,0.5021031498908997,0.92,0.81,0.001
383,0.3933909237384796,0.5023725032806396,0.92,0.81,0.001
384,0.3933403789997101,0.5025752782821655,0.92,0.81,0.001
385,0.39367130398750305,0.5027169585227966,0.92,0.81,0.001
386,0.39349502325057983,0.5028147101402283,0.92,0.81,0.001
387,0.3935517966747284,0.5029094219207764,0.92,0.81,0.0007937005259840996
388,0.3932460844516754,0.5029540061950684,0.92,0.81,0.0007937005259840996
389,0.393512487411499,0.5029661059379578,0.92,0.81,0.0007937005259840996
390,0.3937152624130249,0.5030112266540527,0.92,0.81,0.0007937005259840996
391,0.3938336968421936,0.5029563307762146,0.92,0.81,0.0007937005259840996
392,0.39350834488868713,0.5029004216194153,0.92,0.81,0.0007937005259840996
393,0.393568217754364,0.5028036236763,0.92,0.81,0.0007937005259840996
394,0.3934473395347595,0.5027180314064026,0.92,0.81,0.0007937005259840996
395,0.39341890811920166,0.5026379823684692,0.92,0.81,0.0007937005259840996
396,0.39397332072257996,0.5025935769081116,0.92,0.81,0.0007937005259840996
397,0.39333686232566833,0.5025583505630493,0.92,0.81,0.0007937005259840996
398,0.39334556460380554,0.5025182366371155,0.92,0.81,0.0007937005259840996
399,0.39343371987342834,0.5024587512016296,0.92,0.81,0.0007937005259840996
400,0.39372894167900085,0.5023995637893677,0.92,0.81,0.0007937005259840996
401,0.39340436458587646,0.5023344159126282,0.92,0.81,0.0007937005259840996
402,0.39342373609542847,0.5022491812705994,0.92,0.81,0.0007937005259840996
403,0.39357617497444153,0.5021231770515442,0.92,0.81,0.0007937005259840996
404,0.39333575963974,0.5019978284835815,0.92,0.81,0.0007937005259840996
405,0.39339423179626465,0.5018846392631531,0.92,0.81,0.0007937005259840996
406,0.39318373799324036,0.5017713308334351,0.92,0.81,0.0007937005259840996
407,0.3933718800544739,0.5016958713531494,0.92,0.81,0.0007937005259840996
408,0.39300763607025146,0.5015907883644104,0.92,0.81,0.0007937005259840996
409,0.39337822794914246,0.5014746189117432,0.92,0.81,0.0007937005259840996
410,0.39305686950683594,0.5013769865036011,0.92,0.81,0.0007937005259840996
411,0.3935859799385071,0.5013395547866821,0.92,0.81,0.0007937005259840996
412,0.39358317852020264,0.5013375878334045,0.92,0.81,0.0007937005259840996
413,0.39344456791877747,0.5013099908828735,0.92,0.81,0.0007937005259840996
414,0.3934786319732666,0.5012860894203186,0.92,0.81,0.0007937005259840996
415,0.39363032579421997,0.5012403130531311,0.92,0.81,0.0007937005259840996
416,0.3933686316013336,0.5011980533599854,0.92,0.81,0.0007937005259840996
417,0.3933814764022827,0.5011544227600098,0.92,0.81,0.0007937005259840996
418,0.393372118473053,0.5010882019996643,0.92,0.81,0.0007937005259840996
419,0.39336636662483215,0.5010268092155457,0.92,0.81,0.0007937005259840996
420,0.3934363126754761,0.5009724497795105,0.92,0.81,0.0007937005259840996
421,0.39349448680877686,0.5008909106254578,0.92,0.81,0.0007937005259840996
422,0.39335301518440247,0.5008097290992737,0.92,0.81,0.0007937005259840996
423,0.39342209696769714,0.5007470846176147,0.92,0.81,0.0007937005259840996
424,0.39348381757736206,0.5007128119468689,0.92,0.81,0.0007937005259840996
425,0.3935265839099884,0.5006240606307983,0.92,0.81,0.0007937005259840996
426,0.3934415876865387,0.5005483031272888,0.92,0.81,0.0007937005259840996
427,0.39337158203125,0.5004778504371643,0.92,0.81,0.0007937005259840996
428,0.39335906505584717,0.5004287958145142,0.92,0.81,0.0007937005259840996
429,0.393291175365448,0.5004108548164368,0.92,0.82,0.0007937005259840996
430,0.3932797908782959,0.5003824830055237,0.92,0.82,0.0007937005259840996
431,0.39333516359329224,0.5003765821456909,0.92,0.82,0.0007937005259840996
432,0.39272427558898926,0.500400185585022,0.92,0.82,0.0007937005259840996
433,0.3934994041919708,0.5003767609596252,0.92,0.82,0.0007937005259840996
434,0.3935730755329132,0.5002546310424805,0.92,0.82,0.0007937005259840996
435,0.39314520359039307,0.5002132654190063,0.92,0.82,0.0007937005259840996
436,0.39241740107536316,0.5056984424591064,0.92,0.8,0.0007937005259840996
437,0.39093485474586487,0.5063437819480896,0.92,0.8,0.0007937005259840996
438,0.38400259613990784,0.5020034909248352,0.93,0.82,0.0007937005259840996
439,0.38337603211402893,0.49947917461395264,0.93,0.82,0.0007937005259840996
440,0.38348472118377686,0.4986271262168884,0.93,0.82,0.0007937005259840996
441,0.38352158665657043,0.4982292950153351,0.93,0.82,0.0007937005259840996
442,0.3832618296146393,0.49788612127304077,0.93,0.82,0.0007937005259840996
443,0.38371026515960693,0.49777087569236755,0.93,0.82,0.0007937005259840996
444,0.38324475288391113,0.4978080093860626,0.93,0.82,0.0007937005259840996
445,0.38336536288261414,0.49783530831336975,0.93,0.82,0.0007937005259840996
446,0.383632093667984,0.4977388381958008,0.93,0.81,0.0007937005259840996
447,0.3836626410484314,0.49752891063690186,0.93,0.81,0.0007937005259840996
448,0.3835040032863617,0.4974423944950104,0.93,0.81,0.0007937005259840996
449,0.3839372992515564,0.49798280000686646,0.93,0.81,0.0007937005259840996
450,0.38337382674217224,0.4982791841030121,0.93,0.81,0.0007937005259840996
451,0.38382893800735474,0.49861812591552734,0.93,0.81,0.0007937005259840996
452,0.38361799716949463,0.4987608790397644,0.93,0.8,0.0007937005259840996
453,0.38346463441848755,0.4988625645637512,0.93,0.8,0.0007937005259840996
454,0.3838265538215637,0.49902066588401794,0.93,0.8,0.0007937005259840996
455,0.38344287872314453,0.4991084039211273,0.93,0.81,0.0007937005259840996
456,0.3846529722213745,0.49900397658348083,0.93,0.81,0.0007937005259840996
457,0.3834020495414734,0.49899643659591675,0.93,0.81,0.0007937005259840996
458,0.3831457793712616,0.49892154335975647,0.93,0.81,0.0007937005259840996
459,0.3830435574054718,0.4988947808742523,0.93,0.81,0.0007937005259840996
460,0.38375285267829895,0.49904337525367737,0.93,0.81,0.0007937005259840996
461,0.3829411566257477,0.49876320362091064,0.93,0.81,0.0007937005259840996
462,0.3832886815071106,0.49885308742523193,0.93,0.81,0.0007937005259840996
463,0.3783549964427948,0.5098915696144104,0.93,0.78,0.0007937005259840996
464,0.38130152225494385,0.512258768081665,0.93,0.8,0.0007937005259840996
465,0.3772849142551422,0.5104374289512634,0.94,0.81,0.0007937005259840996
466,0.37675940990448,0.5032266974449158,0.94,0.81,0.0007937005259840996
467,0.3746921420097351,0.5017908215522766,0.94,0.81,0.0007937005259840996
468,0.37753090262413025,0.5013797879219055,0.94,0.81,0.0007937005259840996
469,0.37914028763771057,0.5024356842041016,0.94,0.81,0.0007937005259840996
470,0.37584999203681946,0.5028203725814819,0.94,0.82,0.0007937005259840996
471,0.37727925181388855,0.5015079379081726,0.94,0.82,0.0007937005259840996
472,0.3743937015533447,0.5106165409088135,0.94,0.8,0.0007937005259840996
473,0.37426018714904785,0.5119030475616455,0.94,0.81,0.0007937005259840996
474,0.37376469373703003,0.5144041180610657,0.94,0.81,0.0007937005259840996
475,0.3744890093803406,0.5181256532669067,0.94,0.8,0.0007937005259840996
476,0.3755151033401489,0.5160794258117676,0.94,0.8,0.0007937005259840996
477,0.3739938735961914,0.5137618780136108,0.94,0.8,0.0007937005259840996
478,0.3740527331829071,0.5159734487533569,0.94,0.78,0.0007937005259840996
479,0.37479111552238464,0.515508770942688,0.94,0.78,0.0007937005259840996
480,0.3735469877719879,0.5113964676856995,0.94,0.79,0.0007937005259840996
481,0.37426528334617615,0.5101820826530457,0.94,0.8,0.0007937005259840996
482,0.3739653527736664,0.502490222454071,0.94,0.81,0.0007937005259840996
483,0.373774915933609,0.49819642305374146,0.94,0.82,0.0007937005259840996
484,0.3739529550075531,0.49756699800491333,0.94,0.82,0.0007937005259840996
485,0.37362203001976013,0.499333918094635,0.94,0.82,0.0007937005259840996
486,0.37364327907562256,0.5039874911308289,0.94,0.81,0.0007937005259840996
487,0.37384337186813354,0.5053989887237549,0.94,0.81,0.0007937005259840996
488,0.37354713678359985,0.5054277181625366,0.94,0.81,0.0006299605249474364
489,0.3734562397003174,0.5053727626800537,0.94,0.81,0.0006299605249474364
490,0.37381380796432495,0.5054266452789307,0.94,0.81,0.0006299605249474364
491,0.3732939064502716,0.5057675242424011,0.94,0.81,0.0006299605249474364
492,0.3737438917160034,0.5070154070854187,0.94,0.81,0.0006299605249474364
493,0.3734253942966461,0.5091599822044373,0.94,0.8,0.0006299605249474364
494,0.374311625957489,0.51124107837677,0.94,0.8,0.0006299605249474364
495,0.3734081983566284,0.512679398059845,0.94,0.8,0.0006299605249474364
496,0.3736194670200348,0.5133008360862732,0.94,0.8,0.0006299605249474364
497,0.3739645481109619,0.5136735439300537,0.94,0.8,0.0006299605249474364
498,0.3735952079296112,0.5141375064849854,0.94,0.8,0.0006299605249474364
499,0.3737802505493164,0.514443576335907,0.94,0.8,0.0006299605249474364
500,0.37346163392066956,0.5146511793136597,0.94,0.8,0.0006299605249474364
501,0.3733980655670166,0.5148007869720459,0.94,0.8,0.0006299605249474364
502,0.37335464358329773,0.5149057507514954,0.94,0.8,0.0006299605249474364
503,0.37386947870254517,0.5150546431541443,0.94,0.8,0.0006299605249474364
504,0.3733415901660919,0.515174925327301,0.94,0.8,0.0006299605249474364
505,0.37346699833869934,0.5153063535690308,0.94,0.8,0.0006299605249474364
506,0.3735423684120178,0.5153428912162781,0.94,0.8,0.0006299605249474364
507,0.3734775185585022,0.515365719795227,0.94,0.8,0.0006299605249474364
508,0.3735164999961853,0.5154014825820923,0.94,0.8,0.0006299605249474364
509,0.37343963980674744,0.5154123306274414,0.94,0.8,0.0006299605249474364
510,0.37335488200187683,0.5154187083244324,0.94,0.8,0.0006299605249474364
511,0.3733963072299957,0.5154072642326355,0.94,0.8,0.0006299605249474364
512,0.3734340965747833,0.5154131054878235,0.94,0.8,0.0006299605249474364
513,0.3735208511352539,0.515515148639679,0.94,0.8,0.0006299605249474364
514,0.37387824058532715,0.515559196472168,0.94,0.8,0.0006299605249474364
515,0.37421122193336487,0.51528000831604,0.94,0.8,0.0006299605249474364
516,0.3734697997570038,0.5147989988327026,0.94,0.8,0.0006299605249474364
517,0.3734765648841858,0.5139673352241516,0.94,0.8,0.0006299605249474364
518,0.3736656606197357,0.5131389498710632,0.94,0.8,0.0006299605249474364
519,0.3733748197555542,0.5122699737548828,0.94,0.8,0.0006299605249474364
520,0.3731086850166321,0.510846734046936,0.94,0.8,0.0006299605249474364
521,0.3733042776584625,0.5093767046928406,0.94,0.8,0.0006299605249474364
522,0.3734011948108673,0.5083054900169373,0.94,0.81,0.0006299605249474364
523,0.37339651584625244,0.5075901746749878,0.94,0.81,0.0006299605249474364
524,0.37345027923583984,0.5069990754127502,0.94,0.81,0.0006299605249474364
525,0.3735140860080719,0.5069611072540283,0.94,0.81,0.0006299605249474364
526,0.3736986517906189,0.5075365900993347,0.94,0.81,0.0006299605249474364
527,0.373401939868927,0.5076147317886353,0.94,0.81,0.0006299605249474364
528,0.37338486313819885,0.5076545476913452,0.94,0.81,0.0006299605249474364
529,0.3736688196659088,0.5082075595855713,0.94,0.81,0.0006299605249474364
530,0.373495489358902,0.5090319514274597,0.94,0.81,0.0006299605249474364
531,0.3734075129032135,0.5100347995758057,0.94,0.8,0.0006299605249474364
532,0.373528391122818,0.51102614402771,0.94,0.8,0.0006299605249474364
533,0.37326380610466003,0.5118709802627563,0.94,0.8,0.0006299605249474364
534,0.3733161985874176,0.5125896334648132,0.94,0.8,0.0006299605249474364
535,0.37337031960487366,0.5132091045379639,0.94,0.8,0.0006299605249474364
536,0.3734472990036011,0.5135864019393921,0.94,0.8,0.0006299605249474364
537,0.373371958732605,0.5138343572616577,0.94,0.8,0.0006299605249474364
538,0.37353378534317017,0.5139398574829102,0.94,0.8,0.0006299605249474364
539,0.37347450852394104,0.5142309069633484,0.94,0.8,0.0006299605249474364
540,0.3736765384674072,0.5144246816635132,0.94,0.8,0.0006299605249474364
541,0.37342941761016846,0.5146042108535767,0.94,0.8,0.0006299605249474364
542,0.37316107749938965,0.5147777795791626,0.94,0.8,0.0006299605249474364
543,0.3737637400627136,0.5152053236961365,0.94,0.8,0.0006299605249474364
544,0.3733336627483368,0.5154201984405518,0.94,0.8,0.0006299605249474364
545,0.3733997046947479,0.5155577659606934,0.94,0.8,0.0006299605249474364
546,0.3733796775341034,0.5157074928283691,0.94,0.8,0.0006299605249474364
547,0.37420886754989624,0.5149698853492737,0.94,0.8,0.0006299605249474364
548,0.37410473823547363,0.5133575797080994,0.94,0.8,0.0006299605249474364
549,0.3732026219367981,0.5111021399497986,0.94,0.8,0.0006299605249474364
550,0.37332767248153687,0.5087250471115112,0.94,0.81,0.0006299605249474364
551,0.37334102392196655,0.5070648789405823,0.94,0.81,0.0006299605249474364
552,0.37341105937957764,0.5059963464736938,0.94,0.81,0.0006299605249474364
553,0.3734322488307953,0.5054905414581299,0.94,0.81,0.0006299605249474364
554,0.3734513819217682,0.5052579641342163,0.94,0.81,0.0006299605249474364
555,0.3734629452228546,0.5051403641700745,0.94,0.81,0.0006299605249474364
556,0.3734591007232666,0.5050573348999023,0.94,0.81,0.0006299605249474364
557,0.3735516369342804,0.5050950646400452,0.94,0.81,0.0006299605249474364
558,0.373897522687912,0.5051565170288086,0.94,0.81,0.0006299605249474364
559,0.37325555086135864,0.5052078366279602,0.94,0.81,0.0006299605249474364
560,0.37372860312461853,0.5053249001502991,0.94,0.81,0.0006299605249474364
561,0.37330663204193115,0.5054345726966858,0.94,0.81,0.0006299605249474364
562,0.37330055236816406,0.5055361986160278,0.94,0.81,0.0006299605249474364
563,0.37350136041641235,0.5056835412979126,0.94,0.81,0.0006299605249474364
564,0.3732917308807373,0.5058200359344482,0.94,0.81,0.0006299605249474364
565,0.37342625856399536,0.5060539841651917,0.94,0.81,0.0006299605249474364
566,0.37332016229629517,0.5062967538833618,0.94,0.81,0.0006299605249474364
567,0.37335968017578125,0.5065857172012329,0.94,0.81,0.0006299605249474364
568,0.37338778376579285,0.5068262219429016,0.94,0.81,0.0006299605249474364
569,0.3733655512332916,0.5069431662559509,0.94,0.81,0.0006299605249474364
570,0.37332701683044434,0.5070404410362244,0.94,0.81,0.0006299605249474364
571,0.3733503222465515,0.5072173476219177,0.94,0.81,0.0006299605249474364
572,0.37335366010665894,0.5073912143707275,0.94,0.81,0.0006299605249474364
573,0.3735085725784302,0.5075947046279907,0.94,0.81,0.0006299605249474364
574,0.3733053505420685,0.5076619982719421,0.94,0.81,0.0006299605249474364
575,0.37335479259490967,0.5075356364250183,0.94,0.81,0.0006299605249474364
576,0.37335875630378723,0.5076953768730164,0.94,0.81,0.0006299605249474364
577,0.3733779489994049,0.507688045501709,0.94,0.81,0.0006299605249474364
578,0.37337401509284973,0.5076957941055298,0.94,0.81,0.0006299605249474364
579,0.37345901131629944,0.5075392127037048,0.94,0.81,0.0006299605249474364
580,0.3734545409679413,0.5077334046363831,0.94,0.81,0.0006299605249474364
581,0.37335434556007385,0.5079963207244873,0.94,0.81,0.0006299605249474364
582,0.3733910620212555,0.5081602334976196,0.94,0.81,0.0006299605249474364
583,0.3737012445926666,0.5082385540008545,0.94,0.81,0.0006299605249474364
584,0.3734624981880188,0.5083221197128296,0.94,0.81,0.0006299605249474364
585,0.3737331032752991,0.5082846283912659,0.94,0.81,0.0006299605249474364
586,0.37332475185394287,0.5081616044044495,0.94,0.81,0.0006299605249474364
587,0.37338483333587646,0.5082056522369385,0.94,0.81,0.0006299605249474364
588,0.3734634518623352,0.5083440542221069,0.94,0.81,0.0006299605249474364
589,0.37339627742767334,0.5084477663040161,0.94,0.81,0.0004999999999999997
590,0.37337034940719604,0.5085657238960266,0.94,0.81,0.0004999999999999997
591,0.37330445647239685,0.508618950843811,0.94,0.81,0.0004999999999999997
592,0.3731650114059448,0.508543074131012,0.94,0.81,0.0004999999999999997
593,0.3733731806278229,0.508506715297699,0.94,0.81,0.0004999999999999997
594,0.37337425351142883,0.5084629654884338,0.94,0.81,0.0004999999999999997
595,0.373351514339447,0.5084042549133301,0.94,0.81,0.0004999999999999997
596,0.3733309805393219,0.5081424117088318,0.94,0.81,0.0004999999999999997
597,0.3733530044555664,0.5079482793807983,0.94,0.81,0.0004999999999999997
598,0.3732788562774658,0.5077167749404907,0.94,0.81,0.0004999999999999997
599,0.37347060441970825,0.5075379014015198,0.94,0.81,0.0004999999999999997
600,0.37353935837745667,0.5075961947441101,0.94,0.81,0.0004999999999999997
601,0.37341004610061646,0.507581889629364,0.94,0.81,0.0004999999999999997
602,0.3733440339565277,0.507595956325531,0.94,0.81,0.0004999999999999997
603,0.37349894642829895,0.5077564120292664,0.94,0.81,0.0004999999999999997
604,0.37330707907676697,0.5079172849655151,0.94,0.81,0.0004999999999999997
605,0.37335559725761414,0.5081430673599243,0.94,0.81,0.0004999999999999997
606,0.37358853220939636,0.508760392665863,0.94,0.81,0.0004999999999999997
607,0.3734780550003052,0.5088818669319153,0.94,0.81,0.0004999999999999997
608,0.37329041957855225,0.508998453617096,0.94,0.81,0.0004999999999999997
609,0.3734003007411957,0.5090345740318298,0.94,0.81,0.0004999999999999997
610,0.3733377158641815,0.5090859532356262,0.94,0.81,0.0004999999999999997
611,0.3733866512775421,0.5091584324836731,0.94,0.81,0.0004999999999999997
612,0.3733665347099304,0.509253740310669,0.94,0.81,0.0004999999999999997
613,0.37329283356666565,0.5092661380767822,0.94,0.81,0.0004999999999999997
614,0.37334954738616943,0.5091922879219055,0.94,0.81,0.0004999999999999997
615,0.37326499819755554,0.509092390537262,0.94,0.81,0.0004999999999999997
616,0.37346404790878296,0.5089401602745056,0.94,0.81,0.0004999999999999997
617,0.37338265776634216,0.5088759064674377,0.94,0.81,0.0004999999999999997
618,0.3732653558254242,0.5087812542915344,0.94,0.81,0.0004999999999999997
619,0.3734196722507477,0.5086743235588074,0.94,0.81,0.0004999999999999997
620,0.3733208477497101,0.5085590481758118,0.94,0.81,0.0004999999999999997
621,0.3734000325202942,0.5084187984466553,0.94,0.81,0.0004999999999999997
622,0.3733283281326294,0.5082893967628479,0.94,0.81,0.0004999999999999997
623,0.3733382821083069,0.5082618594169617,0.94,0.81,0.0004999999999999997
624,0.37340247631073,0.5081577301025391,0.94,0.81,0.0004999999999999997
625,0.3734755218029022,0.5081892609596252,0.94,0.81,0.0004999999999999997
626,0.37337642908096313,0.5083446502685547,0.94,0.81,0.0004999999999999997
627,0.37334495782852173,0.5085919499397278,0.94,0.81,0.0004999999999999997
628,0.3733382821083069,0.5088366866111755,0.94,0.81,0.0004999999999999997
629,0.37332767248153687,0.5090843439102173,0.94,0.81,0.0004999999999999997
630,0.37332969903945923,0.5093295574188232,0.94,0.81,0.0004999999999999997
631,0.37329474091529846,0.5095772743225098,0.94,0.81,0.0004999999999999997
632,0.3733775317668915,0.5096577405929565,0.94,0.81,0.0004999999999999997
633,0.3733636736869812,0.509651243686676,0.94,0.81,0.0004999999999999997
634,0.37310829758644104,0.5096229314804077,0.94,0.81,0.0004999999999999997
635,0.37327510118484497,0.5094425082206726,0.94,0.81,0.0004999999999999997
636,0.3733471632003784,0.5093671679496765,0.94,0.81,0.0004999999999999997
637,0.37327349185943604,0.5092342495918274,0.94,0.81,0.0004999999999999997
638,0.373401403427124,0.5091181397438049,0.94,0.81,0.0004999999999999997
639,0.37336695194244385,0.5089613199234009,0.94,0.81,0.0004999999999999997
640,0.3732055723667145,0.5085297226905823,0.94,0.81,0.0004999999999999997
641,0.3733276426792145,0.5082140564918518,0.94,0.81,0.0004999999999999997
642,0.37329137325286865,0.5078980922698975,0.94,0.81,0.0004999999999999997
643,0.37333792448043823,0.5076256394386292,0.94,0.81,0.0004999999999999997
644,0.3733457326889038,0.5073681473731995,0.94,0.81,0.0004999999999999997
645,0.37346476316452026,0.5070574283599854,0.94,0.81,0.0004999999999999997
646,0.37347811460494995,0.506834864616394,0.94,0.81,0.0004999999999999997
647,0.37338775396347046,0.5067004561424255,0.94,0.81,0.0004999999999999997
648,0.3734554052352905,0.5067436695098877,0.94,0.81,0.0004999999999999997
649,0.37332046031951904,0.5067738890647888,0.94,0.81,0.0004999999999999997
650,0.3732973039150238,0.5067716240882874,0.94,0.81,0.0004999999999999997
651,0.3733474314212799,0.5067813992500305,0.94,0.81,0.0004999999999999997
652,0.3733177185058594,0.5068404078483582,0.94,0.81,0.0004999999999999997
653,0.37332412600517273,0.5069680213928223,0.94,0.81,0.0004999999999999997
654,0.3732396066188812,0.5071188807487488,0.94,0.81,0.0004999999999999997
655,0.37335535883903503,0.5071569085121155,0.94,0.81,0.0004999999999999997
656,0.3732881247997284,0.5071280598640442,0.94,0.81,0.0004999999999999997
657,0.3734057545661926,0.5072705745697021,0.94,0.81,0.0004999999999999997
658,0.37331441044807434,0.5074307918548584,0.94,0.81,0.0004999999999999997
659,0.37330999970436096,0.5075505375862122,0.94,0.81,0.0004999999999999997
660,0.373214453458786,0.5075996518135071,0.94,0.81,0.0004999999999999997
661,0.3733142614364624,0.507563054561615,0.94,0.81,0.0004999999999999997
662,0.373351514339447,0.5073227882385254,0.94,0.81,0.0004999999999999997
663,0.37328970432281494,0.5071322917938232,0.94,0.81,0.0004999999999999997
664,0.37329500913619995,0.5069519281387329,0.94,0.81,0.0004999999999999997
665,0.3733159303665161,0.5068246722221375,0.94,0.81,0.0004999999999999997
666,0.37332040071487427,0.5066828727722168,0.94,0.81,0.0004999999999999997
667,0.37333354353904724,0.5065174102783203,0.94,0.81,0.0004999999999999997
668,0.37327221035957336,0.5063148736953735,0.94,0.81,0.0004999999999999997
669,0.37334567308425903,0.5061668753623962,0.94,0.81,0.0004999999999999997
670,0.3733377456665039,0.5060299038887024,0.94,0.81,0.0004999999999999997
671,0.3733769357204437,0.5058742761611938,0.94,0.81,0.0004999999999999997
672,0.37336939573287964,0.5057342052459717,0.94,0.81,0.0004999999999999997
673,0.37332507967948914,0.5055935382843018,0.94,0.81,0.0004999999999999997
674,0.37334969639778137,0.5054824948310852,0.94,0.81,0.0004999999999999997
675,0.3714868128299713,0.5052717328071594,0.94,0.81,0.0004999999999999997
676,0.3732761740684509,0.5050233006477356,0.94,0.81,0.0004999999999999997
677,0.3732641935348511,0.5048022270202637,0.94,0.81,0.0004999999999999997
678,0.3733972907066345,0.504650354385376,0.94,0.81,0.0004999999999999997
679,0.3733333647251129,0.5045442581176758,0.94,0.81,0.0004999999999999997
680,0.37308987975120544,0.5043708682060242,0.94,0.81,0.0004999999999999997
681,0.37330344319343567,0.5042060613632202,0.94,0.81,0.0004999999999999997
682,0.37339678406715393,0.5040687918663025,0.94,0.81,0.0004999999999999997
683,0.3733443021774292,0.5039907097816467,0.94,0.81,0.0004999999999999997
684,0.3735652565956116,0.5041269659996033,0.94,0.81,0.0004999999999999997
685,0.3731188178062439,0.5041643381118774,0.94,0.81,0.0004999999999999997
686,0.373474657535553,0.5042591094970703,0.94,0.81,0.0004999999999999997
687,0.37346145510673523,0.5045418739318848,0.94,0.81,0.0004999999999999997
688,0.373317152261734,0.5048537254333496,0.94,0.81,0.0004999999999999997
689,0.3734332025051117,0.5054042339324951,0.94,0.81,0.0004999999999999997
690,0.37398961186408997,0.5053388476371765,0.94,0.81,0.00039685026299204955
691,0.3733324110507965,0.5053479075431824,0.94,0.81,0.00039685026299204955
692,0.3732348680496216,0.5053531527519226,0.94,0.81,0.00039685026299204955
693,0.37337517738342285,0.5052816271781921,0.94,0.81,0.00039685026299204955
694,0.3732915222644806,0.505240797996521,0.94,0.81,0.00039685026299204955
695,0.37333282828330994,0.5053226351737976,0.94,0.81,0.00039685026299204955
696,0.3730572760105133,0.5053206086158752,0.94,0.81,0.00039685026299204955
697,0.3733770251274109,0.5055238604545593,0.94,0.81,0.00039685026299204955
698,0.3731187582015991,0.5057778358459473,0.94,0.81,0.00039685026299204955
699,0.3735674023628235,0.5061272382736206,0.94,0.81,0.00039685026299204955
700,0.3733694851398468,0.5063657164573669,0.94,0.81,0.00039685026299204955
701,0.3734404444694519,0.5065712928771973,0.94,0.81,0.00039685026299204955
702,0.3733339309692383,0.5068650245666504,0.94,0.81,0.00039685026299204955
703,0.37362655997276306,0.5079643130302429,0.94,0.81,0.00039685026299204955
704,0.37323763966560364,0.5090038776397705,0.94,0.8,0.00039685026299204955
705,0.3733201324939728,0.5100467205047607,0.94,0.8,0.00039685026299204955
706,0.3733341693878174,0.5111429691314697,0.94,0.8,0.00039685026299204955
707,0.3733266592025757,0.5120305418968201,0.94,0.8,0.00039685026299204955
708,0.3733358085155487,0.5128307938575745,0.94,0.8,0.00039685026299204955
709,0.3733775019645691,0.5135141611099243,0.94,0.8,0.00039685026299204955
710,0.37281718850135803,0.5140187740325928,0.94,0.8,0.00039685026299204955
711,0.37328463792800903,0.5143963098526001,0.94,0.8,0.00039685026299204955
712,0.3727133274078369,0.5145578980445862,0.94,0.8,0.00039685026299204955
713,0.3731275796890259,0.5146472454071045,0.94,0.8,0.00039685026299204955
714,0.37270012497901917,0.5146125555038452,0.94,0.8,0.00039685026299204955
715,0.3732953667640686,0.5145968794822693,0.94,0.8,0.00039685026299204955
716,0.3733143210411072,0.5144983530044556,0.94,0.8,0.00039685026299204955
717,0.373209148645401,0.5144129395484924,0.94,0.8,0.00039685026299204955
718,0.37336939573287964,0.5143490433692932,0.94,0.8,0.00039685026299204955
719,0.37319931387901306,0.5143009424209595,0.94,0.8,0.00039685026299204955
720,0.37339210510253906,0.5143188238143921,0.94,0.8,0.00039685026299204955
721,0.37338411808013916,0.5144094228744507,0.94,0.8,0.00039685026299204955
722,0.3733791708946228,0.5145739316940308,0.94,0.8,0.00039685026299204955
723,0.37345820665359497,0.5146957039833069,0.94,0.8,0.00039685026299204955
724,0.3734629154205322,0.5148739218711853,0.94,0.8,0.00039685026299204955
725,0.3733416795730591,0.5150265693664551,0.94,0.8,0.00039685026299204955
726,0.3736463785171509,0.515238344669342,0.94,0.8,0.00039685026299204955
727,0.37330761551856995,0.5154050588607788,0.94,0.8,0.00039685026299204955
728,0.3729734718799591,0.5154786109924316,0.94,0.8,0.00039685026299204955
729,0.37331685423851013,0.5155523419380188,0.94,0.8,0.00039685026299204955
730,0.3732996881008148,0.5156291723251343,0.94,0.8,0.00039685026299204955
731,0.3732885420322418,0.5156925320625305,0.94,0.8,0.00039685026299204955
732,0.3733381927013397,0.5157380104064941,0.94,0.8,0.00039685026299204955
733,0.37292367219924927,0.5157400965690613,0.94,0.8,0.00039685026299204955
734,0.37317830324172974,0.5157250761985779,0.94,0.8,0.00039685026299204955
735,0.3732108175754547,0.5157043933868408,0.94,0.8,0.00039685026299204955
736,0.3730337619781494,0.51569002866745,0.94,0.8,0.00039685026299204955
737,0.37330394983291626,0.5156756639480591,0.94,0.8,0.00039685026299204955
738,0.37365344166755676,0.5157186985015869,0.94,0.8,0.00039685026299204955
739,0.3731803596019745,0.5157482028007507,0.94,0.8,0.00039685026299204955
740,0.3733401894569397,0.5157917737960815,0.94,0.8,0.00039685026299204955
741,0.372331440448761,0.5157067775726318,0.94,0.8,0.00039685026299204955
742,0.37342989444732666,0.5156305432319641,0.94,0.8,0.00039685026299204955
743,0.37324997782707214,0.5155618786811829,0.94,0.8,0.00039685026299204955
744,0.3732144832611084,0.5153025984764099,0.94,0.8,0.00039685026299204955
745,0.3734101355075836,0.5149747729301453,0.94,0.8,0.00039685026299204955
746,0.3724997043609619,0.514269232749939,0.94,0.8,0.00039685026299204955
747,0.3744581341743469,0.514647901058197,0.94,0.8,0.00039685026299204955
748,0.3726632297039032,0.5139293074607849,0.94,0.79,0.00039685026299204955
749,0.370539128780365,0.5111636519432068,0.94,0.79,0.00039685026299204955
750,0.38018542528152466,0.5057587027549744,0.93,0.81,0.00039685026299204955
751,0.4018556475639343,0.5287546515464783,0.9,0.78,0.00039685026299204955
752,0.44685694575309753,0.532233715057373,0.86,0.78,0.00039685026299204955
753,0.4630448818206787,0.5368472933769226,0.85,0.77,0.00039685026299204955
754,0.45484161376953125,0.5505726933479309,0.85,0.76,0.00039685026299204955
755,0.4506593644618988,0.5369196534156799,0.85,0.78,0.00039685026299204955
756,0.4465792179107666,0.5313881039619446,0.86,0.78,0.00039685026299204955
757,0.4472689926624298,0.518399715423584,0.86,0.8,0.00039685026299204955
758,0.443083256483078,0.518775463104248,0.87,0.79,0.00039685026299204955
759,0.45199906826019287,0.5328037738800049,0.86,0.77,0.00039685026299204955
760,0.4512268006801605,0.5429583191871643,0.86,0.77,0.00039685026299204955
761,0.4581969976425171,0.5462923645973206,0.85,0.77,0.00039685026299204955
762,0.45673084259033203,0.5448392629623413,0.86,0.77,0.00039685026299204955
763,0.45349448919296265,0.5320173501968384,0.87,0.78,0.00039685026299204955
764,0.43626633286476135,0.5191078186035156,0.88,0.79,0.00039685026299204955
765,0.438528448343277,0.4958299994468689,0.88,0.82,0.00039685026299204955
766,0.41632941365242004,0.4998755156993866,0.9,0.81,0.00039685026299204955
767,0.41646647453308105,0.5103643536567688,0.9,0.8,0.00039685026299204955
768,0.42357033491134644,0.5154263377189636,0.88,0.79,0.00039685026299204955
769,0.4144737720489502,0.5070816278457642,0.89,0.81,0.00039685026299204955
770,0.39756014943122864,0.5105178952217102,0.92,0.8,0.00039685026299204955
771,0.40377262234687805,0.49923810362815857,0.91,0.81,0.00039685026299204955
772,0.39411699771881104,0.48995599150657654,0.92,0.82,0.00039685026299204955
773,0.3989880084991455,0.5151910185813904,0.91,0.79,0.00039685026299204955
774,0.4224835932254791,0.540555477142334,0.89,0.76,0.00039685026299204955
775,0.4237156808376312,0.5449235439300537,0.89,0.76,0.00039685026299204955
776,0.42932528257369995,0.5342838168144226,0.88,0.78,0.00039685026299204955
777,0.4252927303314209,0.5215750932693481,0.89,0.79,0.00039685026299204955
778,0.41680145263671875,0.5152090191841125,0.9,0.79,0.00039685026299204955
779,0.40368080139160156,0.49648138880729675,0.9,0.82,0.00039685026299204955
780,0.39887309074401855,0.5008475184440613,0.91,0.81,0.00039685026299204955
781,0.39456695318222046,0.5020163655281067,0.92,0.81,0.00039685026299204955
782,0.39497557282447815,0.5024663805961609,0.92,0.81,0.00039685026299204955
783,0.4006099998950958,0.49756497144699097,0.91,0.82,0.00039685026299204955
784,0.3937739431858063,0.49091213941574097,0.92,0.82,0.00039685026299204955
785,0.39710646867752075,0.491672545671463,0.91,0.82,0.00039685026299204955
786,0.3941528797149658,0.49891147017478943,0.92,0.81,0.00039685026299204955
787,0.39354267716407776,0.5015597343444824,0.92,0.81,0.00039685026299204955
788,0.394473671913147,0.5021087527275085,0.92,0.81,0.00039685026299204955
789,0.3942190110683441,0.5035183429718018,0.92,0.81,0.00039685026299204955
790,0.39328598976135254,0.5064803957939148,0.92,0.81,0.00039685026299204955
791,0.39194995164871216,0.5106687545776367,0.92,0.8,0.00031498026247371797
792,0.3931348919868469,0.5137028694152832,0.92,0.79,0.00031498026247371797
793,0.39412978291511536,0.519692063331604,0.92,0.78,0.00031498026247371797
794,0.3882371783256531,0.5229718685150146,0.92,0.79,0.00031498026247371797
795,0.3884913921356201,0.5229130387306213,0.93,0.8,0.00031498026247371797
796,0.3934531807899475,0.5216492414474487,0.92,0.79,0.00031498026247371797
797,0.3820759952068329,0.5127924084663391,0.93,0.79,0.00031498026247371797
798,0.38299548625946045,0.5086617469787598,0.93,0.79,0.00031498026247371797
799,0.38582843542099,0.5024216175079346,0.92,0.79,0.00031498026247371797
800,0.376473069190979,0.501528799533844,0.94,0.8,0.00031498026247371797
801,0.37463733553886414,0.5012826919555664,0.94,0.81,0.00031498026247371797
802,0.37394770979881287,0.5021058320999146,0.94,0.81,0.00031498026247371797
803,0.37401536107063293,0.503521203994751,0.94,0.81,0.00031498026247371797
804,0.37830448150634766,0.5017541646957397,0.94,0.81,0.00031498026247371797
805,0.3758232593536377,0.49994632601737976,0.94,0.81,0.00031498026247371797
806,0.3775729835033417,0.5001714825630188,0.94,0.81,0.00031498026247371797
807,0.37433022260665894,0.5023548603057861,0.94,0.81,0.00031498026247371797
808,0.3749823272228241,0.5043443441390991,0.94,0.8,0.00031498026247371797
809,0.37324488162994385,0.5053554773330688,0.94,0.8,0.00031498026247371797
810,0.3736099898815155,0.5058218836784363,0.94,0.8,0.00031498026247371797
811,0.37321826815605164,0.5058950185775757,0.94,0.8,0.00031498026247371797
812,0.3736169934272766,0.5055426955223083,0.94,0.8,0.00031498026247371797
813,0.3742009699344635,0.5050687193870544,0.94,0.8,0.00031498026247371797
814,0.37528881430625916,0.5051681399345398,0.94,0.8,0.00031498026247371797
815,0.3735752999782562,0.5052468776702881,0.94,0.8,0.00031498026247371797
816,0.37340205907821655,0.5051040053367615,0.94,0.8,0.00031498026247371797
817,0.3736410140991211,0.5050723552703857,0.94,0.8,0.00031498026247371797
818,0.37361621856689453,0.5050845742225647,0.94,0.8,0.00031498026247371797
819,0.3733339011669159,0.5051223635673523,0.94,0.8,0.00031498026247371797
820,0.37324705719947815,0.5050827264785767,0.94,0.81,0.00031498026247371797
821,0.37324070930480957,0.5051403045654297,0.94,0.81,0.00031498026247371797
822,0.37353450059890747,0.5052662491798401,0.94,0.81,0.00031498026247371797
823,0.3738243579864502,0.5056183934211731,0.94,0.81,0.00031498026247371797
824,0.37268638610839844,0.5059285163879395,0.94,0.81,0.00031498026247371797
825,0.37357184290885925,0.506325364112854,0.94,0.81,0.00031498026247371797
826,0.3736283481121063,0.5068590044975281,0.94,0.81,0.00031498026247371797
827,0.37272176146507263,0.5071622729301453,0.94,0.81,0.00031498026247371797
828,0.37271031737327576,0.5073130130767822,0.94,0.81,0.00031498026247371797
829,0.3729252219200134,0.507412314414978,0.94,0.81,0.00031498026247371797
830,0.366816908121109,0.5070911049842834,0.95,0.8,0.00031498026247371797
831,0.37291058897972107,0.5067991614341736,0.94,0.8,0.00031498026247371797
832,0.37316808104515076,0.5066518187522888,0.94,0.8,0.00031498026247371797
833,0.37329089641571045,0.5064273476600647,0.94,0.8,0.00031498026247371797
834,0.37095439434051514,0.5057840347290039,0.94,0.8,0.00031498026247371797
835,0.3689630627632141,0.5047465562820435,0.94,0.8,0.00031498026247371797
836,0.3716508448123932,0.5038095116615295,0.94,0.8,0.00031498026247371797
837,0.37045392394065857,0.5038488507270813,0.94,0.8,0.00031498026247371797
838,0.36714327335357666,0.504172146320343,0.95,0.8,0.00031498026247371797
839,0.371835857629776,0.5046844482421875,0.93,0.8,0.00031498026247371797
840,0.365570068359375,0.5058868527412415,0.95,0.8,0.00031498026247371797
841,0.3670184314250946,0.5081501603126526,0.95,0.8,0.00031498026247371797
842,0.3662099838256836,0.5110153555870056,0.95,0.79,0.00031498026247371797
843,0.36653345823287964,0.5129635334014893,0.95,0.79,0.00031498026247371797
844,0.3674558401107788,0.5141255855560303,0.95,0.79,0.00031498026247371797
845,0.36463722586631775,0.5150577425956726,0.95,0.79,0.00031498026247371797
846,0.36587411165237427,0.5160031318664551,0.95,0.79,0.00031498026247371797
847,0.3644118905067444,0.518031120300293,0.95,0.78,0.00031498026247371797
848,0.364597350358963,0.518311083316803,0.95,0.79,0.00031498026247371797
849,0.3707730174064636,0.5201970934867859,0.94,0.79,0.00031498026247371797
850,0.3689652681350708,0.5220747590065002,0.94,0.79,0.00031498026247371797
851,0.3715362250804901,0.5231492519378662,0.94,0.79,0.00031498026247371797
852,0.36510902643203735,0.523344874382019,0.95,0.79,0.00031498026247371797
853,0.3646225333213806,0.5234065055847168,0.95,0.79,0.00031498026247371797
854,0.36437615752220154,0.5229937434196472,0.95,0.79,0.00031498026247371797
855,0.3636879324913025,0.522459089756012,0.95,0.79,0.00031498026247371797
856,0.363646924495697,0.5216171145439148,0.95,0.79,0.00031498026247371797
857,0.3640103042125702,0.5205764770507812,0.95,0.79,0.00031498026247371797
858,0.36356398463249207,0.5193466544151306,0.95,0.79,0.00031498026247371797
859,0.3636537790298462,0.5177422165870667,0.95,0.79,0.00031498026247371797
860,0.3638494610786438,0.5157908797264099,0.95,0.79,0.00031498026247371797
861,0.363683819770813,0.5139679908752441,0.95,0.8,0.00031498026247371797
862,0.36409932374954224,0.5126897692680359,0.95,0.8,0.00031498026247371797
863,0.36452943086624146,0.5116005539894104,0.95,0.8,0.00031498026247371797
864,0.36563631892204285,0.511564314365387,0.95,0.8,0.00031498026247371797
865,0.36354580521583557,0.5114728808403015,0.95,0.8,0.00031498026247371797
866,0.36488550901412964,0.5111123323440552,0.95,0.8,0.00031498026247371797
867,0.3635594844818115,0.5107782483100891,0.95,0.8,0.00031498026247371797
868,0.36394742131233215,0.5103312730789185,0.95,0.8,0.00031498026247371797
869,0.3637179136276245,0.5100060105323792,0.95,0.8,0.00031498026247371797
870,0.36369001865386963,0.509662389755249,0.95,0.8,0.00031498026247371797
871,0.364526629447937,0.5094937086105347,0.95,0.8,0.00031498026247371797
872,0.3635139465332031,0.5093483924865723,0.95,0.8,0.00031498026247371797
873,0.36699119210243225,0.5095033049583435,0.95,0.8,0.00031498026247371797
874,0.3640824258327484,0.5095506310462952,0.95,0.8,0.00031498026247371797
875,0.3638044595718384,0.5096039772033691,0.95,0.8,0.00031498026247371797
876,0.36339595913887024,0.5096320509910583,0.95,0.8,0.00031498026247371797
877,0.36360278725624084,0.5096567869186401,0.95,0.8,0.00031498026247371797
878,0.36358797550201416,0.5096969604492188,0.95,0.8,0.00031498026247371797
879,0.3645620048046112,0.5097339153289795,0.95,0.8,0.00031498026247371797
880,0.363603413105011,0.5097748041152954,0.95,0.8,0.00031498026247371797
881,0.3634991943836212,0.5098236203193665,0.95,0.8,0.00031498026247371797
882,0.36355555057525635,0.5098215341567993,0.95,0.8,0.00031498026247371797
883,0.3635176122188568,0.5098616480827332,0.95,0.8,0.00031498026247371797
884,0.3643200695514679,0.5100666284561157,0.95,0.8,0.00031498026247371797
885,0.3640826940536499,0.509967029094696,0.95,0.8,0.00031498026247371797
886,0.3635665476322174,0.5099077820777893,0.95,0.8,0.00031498026247371797
887,0.36379605531692505,0.5099103450775146,0.95,0.8,0.00031498026247371797
888,0.36349135637283325,0.5097610950469971,0.95,0.8,0.00031498026247371797
889,0.3635770082473755,0.5096397995948792,0.95,0.8,0.00031498026247371797
890,0.36401644349098206,0.509628415107727,0.95,0.8,0.00031498026247371797
891,0.3638247549533844,0.5096295475959778,0.95,0.8,0.00031498026247371797
892,0.3636646568775177,0.5095699429512024,0.95,0.8,0.00031498026247371797
893,0.3635934889316559,0.5094113945960999,0.95,0.8,0.00031498026247371797
894,0.36393973231315613,0.5091960430145264,0.95,0.8,0.00031498026247371797
895,0.3636476397514343,0.5089341402053833,0.95,0.8,0.00031498026247371797
896,0.36345431208610535,0.5086644887924194,0.95,0.8,0.00031498026247371797
897,0.3637624979019165,0.5084388256072998,0.95,0.8,0.00031498026247371797
898,0.3638187646865845,0.5081893801689148,0.95,0.8,0.00031498026247371797
899,0.3635290861129761,0.5079787969589233,0.95,0.8,0.00031498026247371797
900,0.3642321825027466,0.5078511238098145,0.95,0.8,0.00031498026247371797
901,0.3637732267379761,0.5077807903289795,0.95,0.8,0.00031498026247371797
902,0.36408528685569763,0.5077977776527405,0.95,0.8,0.00031498026247371797
903,0.36380279064178467,0.5077241659164429,0.95,0.8,0.00031498026247371797
904,0.3633909225463867,0.5076563954353333,0.95,0.8,0.00031498026247371797
905,0.364164263010025,0.5076313614845276,0.95,0.8,0.00031498026247371797
906,0.36344796419143677,0.5075998902320862,0.95,0.8,0.00031498026247371797
907,0.36354637145996094,0.5075742602348328,0.95,0.8,0.00031498026247371797
908,0.36350417137145996,0.5075242519378662,0.95,0.8,0.00031498026247371797
909,0.36362144351005554,0.5074701905250549,0.95,0.8,0.00031498026247371797
910,0.36361443996429443,0.5074040293693542,0.95,0.8,0.00031498026247371797
911,0.3633537292480469,0.5073344707489014,0.95,0.8,0.00031498026247371797
912,0.3635552227497101,0.5072899460792542,0.95,0.8,0.00031498026247371797
913,0.363378643989563,0.5072429180145264,0.95,0.8,0.00031498026247371797
914,0.3635282516479492,0.5071839690208435,0.95,0.8,0.00031498026247371797
915,0.36343109607696533,0.5071343779563904,0.95,0.8,0.00031498026247371797
916,0.363473504781723,0.507095217704773,0.95,0.8,0.00031498026247371797
917,0.36334851384162903,0.5070509910583496,0.95,0.8,0.00031498026247371797
918,0.3638063371181488,0.5070380568504333,0.95,0.8,0.00031498026247371797
919,0.36448952555656433,0.5072069764137268,0.95,0.8,0.00031498026247371797
920,0.3633158504962921,0.5073007345199585,0.95,0.8,0.00031498026247371797
921,0.3638085126876831,0.5074356198310852,0.95,0.8,0.00031498026247371797
922,0.36346229910850525,0.5075291395187378,0.95,0.8,0.00031498026247371797
923,0.3634650409221649,0.5076085329055786,0.95,0.8,0.00031498026247371797
924,0.36346834897994995,0.507652997970581,0.95,0.8,0.00031498026247371797
925,0.36343902349472046,0.5076892971992493,0.95,0.8,0.00031498026247371797
926,0.3634440302848816,0.507714569568634,0.95,0.8,0.00031498026247371797
927,0.3635104298591614,0.5077180862426758,0.95,0.8,0.00031498026247371797
928,0.36345961689949036,0.5077224969863892,0.95,0.8,0.00031498026247371797
929,0.3634357750415802,0.5077170729637146,0.95,0.8,0.00031498026247371797
930,0.36345741152763367,0.507709801197052,0.95,0.8,0.00031498026247371797
931,0.36343899369239807,0.5077098608016968,0.95,0.8,0.00031498026247371797
932,0.3634600043296814,0.5077025890350342,0.95,0.8,0.00031498026247371797
933,0.36372697353363037,0.5077189803123474,0.95,0.8,0.00031498026247371797
934,0.36333274841308594,0.5077448487281799,0.95,0.8,0.00031498026247371797
935,0.363656222820282,0.5077903866767883,0.95,0.8,0.00031498026247371797
936,0.36383751034736633,0.5078598260879517,0.95,0.8,0.00031498026247371797
937,0.36359909176826477,0.5079391002655029,0.95,0.8,0.00031498026247371797
938,0.3635070323944092,0.5080451965332031,0.95,0.8,0.00031498026247371797
939,0.3634023368358612,0.5081135630607605,0.95,0.8,0.00031498026247371797
940,0.3634593188762665,0.5081828832626343,0.95,0.8,0.00031498026247371797
941,0.36335551738739014,0.5082410573959351,0.95,0.8,0.00031498026247371797
942,0.36337289214134216,0.5082908868789673,0.95,0.8,0.00031498026247371797
943,0.36370617151260376,0.5083779096603394,0.95,0.8,0.00031498026247371797
944,0.3635917007923126,0.5084369778633118,0.95,0.8,0.00031498026247371797
945,0.36337611079216003,0.5084879994392395,0.95,0.8,0.00031498026247371797
946,0.3634584844112396,0.5085338354110718,0.95,0.8,0.00031498026247371797
947,0.36337780952453613,0.5085880160331726,0.95,0.8,0.00031498026247371797
948,0.36338913440704346,0.5086332559585571,0.95,0.8,0.00031498026247371797
949,0.363389790058136,0.5086586475372314,0.95,0.8,0.00031498026247371797
950,0.3637453317642212,0.5087052583694458,0.95,0.8,0.00031498026247371797
951,0.36334463953971863,0.5087360143661499,0.95,0.8,0.00031498026247371797
952,0.3633444607257843,0.5087736248970032,0.95,0.8,0.00031498026247371797
953,0.36352890729904175,0.5087978839874268,0.95,0.8,0.00031498026247371797
954,0.36332637071609497,0.5088131427764893,0.95,0.8,0.00031498026247371797
955,0.36345961689949036,0.5088338851928711,0.95,0.8,0.00031498026247371797
956,0.3635637164115906,0.5088180303573608,0.95,0.8,0.00031498026247371797
957,0.36369788646698,0.5088195204734802,0.95,0.8,0.00031498026247371797
958,0.36390015482902527,0.5088159441947937,0.95,0.8,0.00031498026247371797
959,0.3635169267654419,0.5088115334510803,0.95,0.8,0.00031498026247371797
960,0.3634067177772522,0.5088047981262207,0.95,0.8,0.00031498026247371797
961,0.36354488134384155,0.5088212490081787,0.95,0.8,0.00031498026247371797
962,0.3633510172367096,0.5088332891464233,0.95,0.8,0.00031498026247371797
963,0.3634677529335022,0.5087968707084656,0.95,0.8,0.00031498026247371797
964,0.3634072244167328,0.5087805390357971,0.95,0.8,0.00031498026247371797
965,0.36430495977401733,0.5088208913803101,0.95,0.8,0.00031498026247371797
966,0.36341601610183716,0.5088604688644409,0.95,0.8,0.00031498026247371797
967,0.36341094970703125,0.5088751316070557,0.95,0.8,0.00031498026247371797
968,0.3634028136730194,0.5088598728179932,0.95,0.8,0.00031498026247371797
969,0.3633461892604828,0.5088501572608948,0.95,0.8,0.00031498026247371797
970,0.363485723733902,0.5088258981704712,0.95,0.8,0.00031498026247371797
971,0.3633526563644409,0.5087998509407043,0.95,0.8,0.00031498026247371797
972,0.3633124828338623,0.5087671875953674,0.95,0.8,0.00031498026247371797
973,0.36339515447616577,0.5087280869483948,0.95,0.8,0.00031498026247371797
974,0.36324894428253174,0.5087077617645264,0.95,0.8,0.00031498026247371797
975,0.3633196949958801,0.5086727738380432,0.95,0.8,0.00031498026247371797
976,0.3634446859359741,0.5086336731910706,0.95,0.8,0.00031498026247371797
977,0.3633243441581726,0.5085984468460083,0.95,0.8,0.00031498026247371797
978,0.36351051926612854,0.5085328817367554,0.95,0.8,0.00031498026247371797
979,0.36336982250213623,0.508462131023407,0.95,0.8,0.00031498026247371797
980,0.36347147822380066,0.5083958506584167,0.95,0.8,0.00031498026247371797
981,0.36369824409484863,0.5082274079322815,0.95,0.8,0.00031498026247371797
982,0.3634844124317169,0.5080745816230774,0.95,0.8,0.00031498026247371797
983,0.3633522689342499,0.5079289078712463,0.95,0.8,0.00031498026247371797
984,0.36332428455352783,0.5077913999557495,0.95,0.8,0.00031498026247371797
985,0.36341530084609985,0.5076597332954407,0.95,0.8,0.00031498026247371797
986,0.3633460998535156,0.5075483918190002,0.95,0.8,0.00031498026247371797
987,0.3634186089038849,0.5074350237846375,0.95,0.8,0.00031498026247371797
988,0.3633774518966675,0.5073181390762329,0.95,0.8,0.00031498026247371797
989,0.3634144961833954,0.5071859955787659,0.95,0.8,0.00031498026247371797
990,0.36405467987060547,0.5071504712104797,0.95,0.8,0.00031498026247371797
991,0.3633410632610321,0.50712651014328,0.95,0.8,0.00031498026247371797
992,0.3633700907230377,0.5070981383323669,0.95,0.8,0.00031498026247371797
993,0.36348557472229004,0.5070696473121643,0.95,0.8,0.00031498026247371797
994,0.36336833238601685,0.5070528388023376,0.95,0.8,0.00031498026247371797
995,0.36331260204315186,0.5070186853408813,0.95,0.8,0.00031498026247371797
996,0.3633241355419159,0.5069913268089294,0.95,0.8,0.00031498026247371797
997,0.36334919929504395,0.5069475769996643,0.95,0.8,0.00031498026247371797
998,0.3634391725063324,0.506907045841217,0.95,0.8,0.00031498026247371797
999,0.36354246735572815,0.506905198097229,0.95,0.8,0.00031498026247371797
1000,0.3633591830730438,0.506904125213623,0.95,0.8,0.00031498026247371797
1001,0.3635542392730713,0.506891131401062,0.95,0.8,0.00031498026247371797
1002,0.3633846044540405,0.5068907737731934,0.95,0.8,0.00031498026247371797
1003,0.3635649085044861,0.5068849325180054,0.95,0.8,0.00031498026247371797
1004,0.36332017183303833,0.50687575340271,0.95,0.8,0.00031498026247371797
1005,0.36338570713996887,0.5068910717964172,0.95,0.8,0.00031498026247371797
1006,0.36331814527511597,0.5068972706794739,0.95,0.8,0.00031498026247371797
1007,0.36331501603126526,0.5069015622138977,0.95,0.8,0.00031498026247371797
1008,0.363404244184494,0.5069139003753662,0.95,0.8,0.00031498026247371797
1009,0.3633370101451874,0.5069299936294556,0.95,0.8,0.00031498026247371797
1010,0.36331260204315186,0.5069418549537659,0.95,0.8,0.00031498026247371797
1011,0.3632875680923462,0.5069513916969299,0.95,0.8,0.00031498026247371797
1012,0.3633253574371338,0.506952702999115,0.95,0.8,0.00031498026247371797
1013,0.3636586666107178,0.5069578886032104,0.95,0.8,0.00031498026247371797
1014,0.3633861839771271,0.5069591403007507,0.95,0.8,0.00031498026247371797
1015,0.36350017786026,0.5069806575775146,0.95,0.8,0.00031498026247371797
1016,0.363401859998703,0.5069971680641174,0.95,0.8,0.00031498026247371797
1017,0.36343780159950256,0.5070213079452515,0.95,0.8,0.00031498026247371797
1018,0.36333367228507996,0.5070522427558899,0.95,0.8,0.00031498026247371797
1019,0.3634420335292816,0.5070775151252747,0.95,0.8,0.00031498026247371797
1020,0.3633248209953308,0.507091224193573,0.95,0.8,0.00031498026247371797
1021,0.3635765314102173,0.5070733428001404,0.95,0.8,0.00031498026247371797
1022,0.36334899067878723,0.5070860385894775,0.95,0.8,0.00031498026247371797
1023,0.36332228779792786,0.5070974826812744,0.95,0.8,0.00031498026247371797
1024,0.363581120967865,0.5071688294410706,0.95,0.8,0.00031498026247371797
1025,0.3633759319782257,0.5072383880615234,0.95,0.8,0.00031498026247371797
1026,0.36335551738739014,0.5072923302650452,0.95,0.8,0.00031498026247371797
1027,0.3634025454521179,0.5073549151420593,0.95,0.8,0.00031498026247371797
1028,0.3633529543876648,0.5074037313461304,0.95,0.8,0.00031498026247371797
1029,0.3634019196033478,0.507453441619873,0.95,0.8,0.00031498026247371797
1030,0.3633728325366974,0.5074928402900696,0.95,0.8,0.00031498026247371797
1031,0.36344224214553833,0.5075175166130066,0.95,0.8,0.00031498026247371797
1032,0.36335697770118713,0.5075392723083496,0.95,0.8,0.00031498026247371797
1033,0.3634537160396576,0.5075437426567078,0.95,0.8,0.00031498026247371797
1034,0.36332935094833374,0.507560133934021,0.95,0.8,0.00031498026247371797
1035,0.36354196071624756,0.5075548887252808,0.95,0.8,0.00031498026247371797
1036,0.36351287364959717,0.5075697898864746,0.95,0.8,0.00031498026247371797
1037,0.3633371591567993,0.5075699090957642,0.95,0.8,0.00031498026247371797
1038,0.3633497655391693,0.5075706243515015,0.95,0.8,0.00031498026247371797
1039,0.3634704649448395,0.5076015591621399,0.95,0.8,0.00031498026247371797
1040,0.36338627338409424,0.5076388716697693,0.95,0.8,0.00031498026247371797
1041,0.363312691450119,0.5076620578765869,0.95,0.8,0.00031498026247371797
1042,0.3633556067943573,0.5076749920845032,0.95,0.8,0.00031498026247371797
1043,0.3633992671966553,0.5076929330825806,0.95,0.8,0.00031498026247371797
1044,0.36359986662864685,0.5076845288276672,0.95,0.8,0.00031498026247371797
1045,0.363333135843277,0.5076689720153809,0.95,0.8,0.00031498026247371797
1046,0.3636731803417206,0.507551372051239,0.95,0.8,0.00031498026247371797
1047,0.36343538761138916,0.5074701905250549,0.95,0.8,0.00031498026247371797
1048,0.3633331060409546,0.5073865056037903,0.95,0.8,0.00031498026247371797
1049,0.36339297890663147,0.5073012113571167,0.95,0.8,0.00031498026247371797
1050,0.3633357584476471,0.5072320699691772,0.95,0.8,0.00031498026247371797
1051,0.3633309304714203,0.5071679949760437,0.95,0.8,0.00031498026247371797
1052,0.3634093403816223,0.5071144700050354,0.95,0.8,0.00031498026247371797
1053,0.36339735984802246,0.5070620179176331,0.95,0.8,0.00031498026247371797
1054,0.36337199807167053,0.5070229172706604,0.95,0.8,0.00031498026247371797
1055,0.36340391635894775,0.5069653391838074,0.95,0.8,0.00031498026247371797
1056,0.36336642503738403,0.5069249272346497,0.95,0.8,0.00031498026247371797
1057,0.36334696412086487,0.5068886280059814,0.95,0.8,0.00031498026247371797
1058,0.3633436858654022,0.5068492889404297,0.95,0.8,0.00031498026247371797
1059,0.3633846938610077,0.5068320035934448,0.95,0.8,0.00031498026247371797
1060,0.3633345067501068,0.5068127512931824,0.95,0.8,0.00031498026247371797
1061,0.3633660078048706,0.5067895650863647,0.95,0.8,0.00031498026247371797
1062,0.36329686641693115,0.5067690014839172,0.95,0.8,0.00031498026247371797
1063,0.3633103668689728,0.5067495703697205,0.95,0.8,0.00031498026247371797
1064,0.3633619248867035,0.5067369937896729,0.95,0.8,0.00031498026247371797
1065,0.36332201957702637,0.5067238807678223,0.95,0.8,0.00031498026247371797
1066,0.3633328974246979,0.5067143440246582,0.95,0.8,0.00031498026247371797
1067,0.3633180260658264,0.5066970586776733,0.95,0.8,0.00031498026247371797
1068,0.3633195459842682,0.5066932439804077,0.95,0.8,0.00031498026247371797
1069,0.36334824562072754,0.5066961050033569,0.95,0.8,0.00031498026247371797
1070,0.3632989227771759,0.5066924691200256,0.95,0.8,0.00031498026247371797
1071,0.3633677363395691,0.506701648235321,0.95,0.8,0.00031498026247371797
1072,0.3633008301258087,0.5067092776298523,0.95,0.8,0.00031498026247371797
1073,0.3635929524898529,0.5067557096481323,0.95,0.8,0.00031498026247371797
1074,0.36329782009124756,0.5067915320396423,0.95,0.8,0.00031498026247371797
1075,0.3636772930622101,0.506884753704071,0.95,0.8,0.0002499999999999997
1076,0.36329054832458496,0.5069074034690857,0.95,0.8,0.0002499999999999997
1077,0.36336392164230347,0.5069305896759033,0.95,0.8,0.0002499999999999997
1078,0.36339741945266724,0.5069577097892761,0.95,0.8,0.0002499999999999997
1079,0.36337316036224365,0.5069931745529175,0.95,0.8,0.0002499999999999997
1080,0.36332863569259644,0.5070129632949829,0.95,0.8,0.0002499999999999997
1081,0.36337214708328247,0.5070326328277588,0.95,0.8,0.0002499999999999997
1082,0.3633566200733185,0.5070647597312927,0.95,0.8,0.0002499999999999997
1083,0.36329182982444763,0.5070856809616089,0.95,0.8,0.0002499999999999997
1084,0.3633454442024231,0.5071132183074951,0.95,0.8,0.0002499999999999997
1085,0.36332210898399353,0.5071455240249634,0.95,0.8,0.0002499999999999997
1086,0.36333632469177246,0.5071603655815125,0.95,0.8,0.0002499999999999997
1087,0.3633914887905121,0.5071683526039124,0.95,0.8,0.0002499999999999997
1088,0.36334046721458435,0.5071737170219421,0.95,0.8,0.0002499999999999997
1089,0.36340388655662537,0.5071849226951599,0.95,0.8,0.0002499999999999997
1090,0.3633497655391693,0.507201611995697,0.95,0.8,0.0002499999999999997
1091,0.3633451461791992,0.5072213411331177,0.95,0.8,0.0002499999999999997
1092,0.36333751678466797,0.5072327256202698,0.95,0.8,0.0002499999999999997
1093,0.3633662760257721,0.5072346329689026,0.95,0.8,0.0002499999999999997
1094,0.3633173108100891,0.5072282552719116,0.95,0.8,0.0002499999999999997
1095,0.36344027519226074,0.5072309970855713,0.95,0.8,0.0002499999999999997
1096,0.3634602427482605,0.5072339773178101,0.95,0.8,0.0002499999999999997
1097,0.36329251527786255,0.5072407722473145,0.95,0.8,0.0002499999999999997
1098,0.3632969260215759,0.5072460770606995,0.95,0.8,0.0002499999999999997
1099,0.36348092555999756,0.5072311758995056,0.95,0.8,0.0002499999999999997
1100,0.3634282350540161,0.5072193741798401,0.95,0.8,0.0002499999999999997
1101,0.36336246132850647,0.5071997046470642,0.95,0.8,0.0002499999999999997
1102,0.36330336332321167,0.5071834325790405,0.95,0.8,0.0002499999999999997
1103,0.3633037805557251,0.5071724057197571,0.95,0.8,0.0002499999999999997
1104,0.36332884430885315,0.5071586966514587,0.95,0.8,0.0002499999999999997
1105,0.3633226752281189,0.5071516633033752,0.95,0.8,0.0002499999999999997
1106,0.3633694052696228,0.5071430802345276,0.95,0.8,0.0002499999999999997
1107,0.36333802342414856,0.5071490406990051,0.95,0.8,0.0002499999999999997
1108,0.36339718103408813,0.5071575045585632,0.95,0.8,0.0002499999999999997
1109,0.36325764656066895,0.5071638226509094,0.95,0.8,0.0002499999999999997
1110,0.36334288120269775,0.5071688890457153,0.95,0.8,0.0002499999999999997
1111,0.36330437660217285,0.5071718692779541,0.95,0.8,0.0002499999999999997
1112,0.36330676078796387,0.507178008556366,0.95,0.8,0.0002499999999999997
1113,0.3633148968219757,0.5071879029273987,0.95,0.8,0.0002499999999999997
1114,0.363321989774704,0.5071982741355896,0.95,0.8,0.0002499999999999997
1115,0.36333316564559937,0.507209062576294,0.95,0.8,0.0002499999999999997
1116,0.3633706271648407,0.5072200894355774,0.95,0.8,0.0002499999999999997
1117,0.36339324712753296,0.5072256326675415,0.95,0.8,0.0002499999999999997
1118,0.36335891485214233,0.5072331428527832,0.95,0.8,0.0002499999999999997
1119,0.3633478879928589,0.5072450637817383,0.95,0.8,0.0002499999999999997
1120,0.3634311556816101,0.5072715878486633,0.95,0.8,0.0002499999999999997
1121,0.3633335828781128,0.5072934627532959,0.95,0.8,0.0002499999999999997
1122,0.3633134365081787,0.5073196291923523,0.95,0.8,0.0002499999999999997
1123,0.3632971942424774,0.5073349475860596,0.95,0.8,0.0002499999999999997
1124,0.36337530612945557,0.5073537826538086,0.95,0.8,0.0002499999999999997
1125,0.3633202016353607,0.5073688626289368,0.95,0.8,0.0002499999999999997
1126,0.3633387088775635,0.5073808431625366,0.95,0.8,0.0002499999999999997
1127,0.3633095622062683,0.5073878765106201,0.95,0.8,0.0002499999999999997
1128,0.363346666097641,0.5073996186256409,0.95,0.8,0.0002499999999999997
1129,0.36346590518951416,0.5073813796043396,0.95,0.8,0.0002499999999999997
1130,0.3633497357368469,0.5073608160018921,0.95,0.8,0.0002499999999999997
1131,0.3633277416229248,0.5073508024215698,0.95,0.8,0.0002499999999999997
1132,0.3633374869823456,0.5073361396789551,0.95,0.8,0.0002499999999999997
1133,0.36331629753112793,0.5073280930519104,0.95,0.8,0.0002499999999999997
1134,0.36330485343933105,0.507316529750824,0.95,0.8,0.0002499999999999997
1135,0.3633726239204407,0.507297933101654,0.95,0.8,0.0002499999999999997
1136,0.3632887601852417,0.5072846412658691,0.95,0.8,0.0002499999999999997
1137,0.3633001744747162,0.5072730779647827,0.95,0.8,0.0002499999999999997
1138,0.3633076846599579,0.5072648525238037,0.95,0.8,0.0002499999999999997
1139,0.3633389174938202,0.5072593092918396,0.95,0.8,0.0002499999999999997
1140,0.36332714557647705,0.5072505474090576,0.95,0.8,0.0002499999999999997
1141,0.3633480370044708,0.5072506666183472,0.95,0.8,0.0002499999999999997
1142,0.3633301854133606,0.5072451829910278,0.95,0.8,0.0002499999999999997
1143,0.36335140466690063,0.507239818572998,0.95,0.8,0.0002499999999999997
1144,0.36330023407936096,0.5072334408760071,0.95,0.8,0.0002499999999999997
1145,0.36335334181785583,0.5072253346443176,0.95,0.8,0.0002499999999999997
1146,0.3633439540863037,0.50721675157547,0.95,0.8,0.0002499999999999997
1147,0.3633393347263336,0.5072102546691895,0.95,0.8,0.0002499999999999997
1148,0.36331820487976074,0.5072052478790283,0.95,0.8,0.0002499999999999997
1149,0.36339136958122253,0.507210373878479,0.95,0.8,0.0002499999999999997
1150,0.3633851110935211,0.507199764251709,0.95,0.8,0.0002499999999999997
1151,0.36334338784217834,0.5071959495544434,0.95,0.8,0.0002499999999999997
1152,0.3633314073085785,0.5071942806243896,0.95,0.8,0.0002499999999999997
1153,0.36330264806747437,0.5071967840194702,0.95,0.8,0.0002499999999999997
1154,0.3633662164211273,0.5072014331817627,0.95,0.8,0.0002499999999999997
1155,0.36342835426330566,0.5071929693222046,0.95,0.8,0.0002499999999999997
1156,0.3633303940296173,0.5071884393692017,0.95,0.8,0.0002499999999999997
1157,0.3633759021759033,0.507199227809906,0.95,0.8,0.0002499999999999997
1158,0.3632809817790985,0.5072085857391357,0.95,0.8,0.0002499999999999997
1159,0.3633233606815338,0.5072143077850342,0.95,0.8,0.0002499999999999997
1160,0.3633304238319397,0.5072273015975952,0.95,0.8,0.0002499999999999997
1161,0.36331626772880554,0.5072332620620728,0.95,0.8,0.0002499999999999997
1162,0.36331653594970703,0.5072340369224548,0.95,0.8,0.0002499999999999997
1163,0.36335140466690063,0.5072287321090698,0.95,0.8,0.0002499999999999997
1164,0.3635151982307434,0.5072300434112549,0.95,0.8,0.0002499999999999997
1165,0.3633716106414795,0.5072442889213562,0.95,0.8,0.0002499999999999997
1166,0.36335960030555725,0.5072576403617859,0.95,0.8,0.0002499999999999997
1167,0.3633393347263336,0.5072781443595886,0.95,0.8,0.0002499999999999997
1168,0.3633933961391449,0.5072901248931885,0.95,0.8,0.0002499999999999997
1169,0.3633204996585846,0.507304310798645,0.95,0.8,0.0002499999999999997
1170,0.36339566111564636,0.5073269605636597,0.95,0.8,0.0002499999999999997
1171,0.3632872700691223,0.5073438286781311,0.95,0.8,0.0002499999999999997
1172,0.36332446336746216,0.5073554515838623,0.95,0.8,0.0002499999999999997
1173,0.36333125829696655,0.5073708891868591,0.95,0.8,0.0002499999999999997
1174,0.36329254508018494,0.5073845386505127,0.95,0.8,0.0002499999999999997
1175,0.3634195327758789,0.507394015789032,0.95,0.8,0.0002499999999999997
1176,0.363319993019104,0.5074020624160767,0.95,0.8,0.00019842513149602464
1177,0.3633054494857788,0.5074105858802795,0.95,0.8,0.00019842513149602464
1178,0.3633263409137726,0.5074125528335571,0.95,0.8,0.00019842513149602464
1179,0.36339709162712097,0.5074170827865601,0.95,0.8,0.00019842513149602464
1180,0.3634309768676758,0.507404088973999,0.95,0.8,0.00019842513149602464
1181,0.36341848969459534,0.5074074864387512,0.95,0.8,0.00019842513149602464
1182,0.3633487820625305,0.5074073672294617,0.95,0.8,0.00019842513149602464
1183,0.36332929134368896,0.5074076652526855,0.95,0.8,0.00019842513149602464
1184,0.3633275628089905,0.507415771484375,0.95,0.8,0.00019842513149602464
1185,0.3633248209953308,0.507409393787384,0.95,0.8,0.00019842513149602464
1186,0.36334913969039917,0.5074087381362915,0.95,0.8,0.00019842513149602464
1187,0.3632979989051819,0.5074091553688049,0.95,0.8,0.00019842513149602464
1188,0.36336997151374817,0.5074003338813782,0.95,0.8,0.00019842513149602464
1189,0.36337965726852417,0.5073928236961365,0.95,0.8,0.00019842513149602464
1190,0.3633002042770386,0.5073868632316589,0.95,0.8,0.00019842513149602464
1191,0.36337676644325256,0.5073754787445068,0.95,0.8,0.00019842513149602464
1192,0.3633424639701843,0.5073712468147278,0.95,0.8,0.00019842513149602464
1193,0.3635074496269226,0.507336437702179,0.95,0.8,0.00019842513149602464
1194,0.3633725047111511,0.507324755191803,0.95,0.8,0.00019842513149602464
1195,0.36331745982170105,0.5073128938674927,0.95,0.8,0.00019842513149602464
1196,0.3633452355861664,0.5072938799858093,0.95,0.8,0.00019842513149602464
1197,0.3633102774620056,0.507279634475708,0.95,0.8,0.00019842513149602464
1198,0.36329081654548645,0.5072647333145142,0.95,0.8,0.00019842513149602464
1199,0.36334428191185,0.507250964641571,0.95,0.8,0.00019842513149602464
1200,0.36331215500831604,0.507249116897583,0.95,0.8,0.00019842513149602464
1201,0.36336958408355713,0.5072556138038635,0.95,0.8,0.00019842513149602464
1202,0.36329329013824463,0.5072610378265381,0.95,0.8,0.00019842513149602464
1203,0.36339935660362244,0.5072609782218933,0.95,0.8,0.00019842513149602464
1204,0.36332815885543823,0.5072685480117798,0.95,0.8,0.00019842513149602464
1205,0.36335575580596924,0.5072777271270752,0.95,0.8,0.00019842513149602464
1206,0.3633153438568115,0.5072855949401855,0.95,0.8,0.00019842513149602464
1207,0.36337634921073914,0.507291316986084,0.95,0.8,0.00019842513149602464
1208,0.36330071091651917,0.5072996616363525,0.95,0.8,0.00019842513149602464
1209,0.36330947279930115,0.5073034763336182,0.95,0.8,0.00019842513149602464
1210,0.36332952976226807,0.5073109865188599,0.95,0.8,0.00019842513149602464
1211,0.3632914423942566,0.5073193907737732,0.95,0.8,0.00019842513149602464
1212,0.3633040487766266,0.5073307156562805,0.95,0.8,0.00019842513149602464
1213,0.3633476495742798,0.5073227882385254,0.95,0.8,0.00019842513149602464
1214,0.36328747868537903,0.5073204636573792,0.95,0.8,0.00019842513149602464
1215,0.3633285164833069,0.5073143839836121,0.95,0.8,0.00019842513149602464
1216,0.3634223937988281,0.5073065757751465,0.95,0.8,0.00019842513149602464
1217,0.3633061945438385,0.5072968006134033,0.95,0.8,0.00019842513149602464
1218,0.36335068941116333,0.5072870850563049,0.95,0.8,0.00019842513149602464
1219,0.3632904291152954,0.5072813630104065,0.95,0.8,0.00019842513149602464
1220,0.3633284866809845,0.5072677731513977,0.95,0.8,0.00019842513149602464
1221,0.36329877376556396,0.5072649121284485,0.95,0.8,0.00019842513149602464
1222,0.36337894201278687,0.5072707533836365,0.95,0.8,0.00019842513149602464
1223,0.36328789591789246,0.507270336151123,0.95,0.8,0.00019842513149602464
1224,0.36327216029167175,0.5072707533836365,0.95,0.8,0.00019842513149602464
1225,0.3633280098438263,0.5072644948959351,0.95,0.8,0.00019842513149602464
1226,0.363321453332901,0.5072603821754456,0.95,0.8,0.00019842513149602464
1227,0.3633494973182678,0.5072576403617859,0.95,0.8,0.00019842513149602464
1228,0.36335498094558716,0.5072574019432068,0.95,0.8,0.00019842513149602464
1229,0.36330199241638184,0.5072528719902039,0.95,0.8,0.00019842513149602464
1230,0.36339592933654785,0.5072551965713501,0.95,0.8,0.00019842513149602464
1231,0.36330777406692505,0.507253885269165,0.95,0.8,0.00019842513149602464
1232,0.36351221799850464,0.5072683095932007,0.95,0.8,0.00019842513149602464
1233,0.3633831739425659,0.5072846412658691,0.95,0.8,0.00019842513149602464
1234,0.3633529543876648,0.5073021650314331,0.95,0.8,0.00019842513149602464
1235,0.36339741945266724,0.5073251128196716,0.95,0.8,0.00019842513149602464
1236,0.36334189772605896,0.5073414444923401,0.95,0.8,0.00019842513149602464
1237,0.3633151352405548,0.5073648691177368,0.95,0.8,0.00019842513149602464
1238,0.36334046721458435,0.5073787569999695,0.95,0.8,0.00019842513149602464
1239,0.3633354902267456,0.5073941946029663,0.95,0.8,0.00019842513149602464
1240,0.3634205758571625,0.5074077844619751,0.95,0.8,0.00019842513149602464
1241,0.363353431224823,0.507413923740387,0.95,0.8,0.00019842513149602464
1242,0.3633849322795868,0.5074222087860107,0.95,0.8,0.00019842513149602464
1243,0.36332622170448303,0.5074272155761719,0.95,0.8,0.00019842513149602464
1244,0.36338698863983154,0.507402241230011,0.95,0.8,0.00019842513149602464
1245,0.36334145069122314,0.5073851346969604,0.95,0.8,0.00019842513149602464
1246,0.3633233606815338,0.5073658227920532,0.95,0.8,0.00019842513149602464
1247,0.3633233308792114,0.5073568224906921,0.95,0.8,0.00019842513149602464
1248,0.36329591274261475,0.5073480606079102,0.95,0.8,0.00019842513149602464
1249,0.3633158206939697,0.5073392391204834,0.95,0.8,0.00019842513149602464
1250,0.3633154630661011,0.5073291659355164,0.95,0.8,0.00019842513149602464
1251,0.36324626207351685,0.5073279738426208,0.95,0.8,0.00019842513149602464
1252,0.36334463953971863,0.5073244571685791,0.95,0.8,0.00019842513149602464
1253,0.36330440640449524,0.5073204040527344,0.95,0.8,0.00019842513149602464
1254,0.3633362948894501,0.5073233246803284,0.95,0.8,0.00019842513149602464
1255,0.3632875680923462,0.5073218941688538,0.95,0.8,0.00019842513149602464
1256,0.3633068799972534,0.5073253512382507,0.95,0.8,0.00019842513149602464
1257,0.363321989774704,0.5073302984237671,0.95,0.8,0.00019842513149602464
1258,0.3633478581905365,0.5073347687721252,0.95,0.8,0.00019842513149602464
1259,0.36332663893699646,0.5073269605636597,0.95,0.8,0.00019842513149602464
1260,0.3633294403553009,0.507327675819397,0.95,0.8,0.00019842513149602464
1261,0.3633805513381958,0.5073162317276001,0.95,0.8,0.00019842513149602464
1262,0.36340615153312683,0.507318913936615,0.95,0.8,0.00019842513149602464
1263,0.3633238971233368,0.5073193311691284,0.95,0.8,0.00019842513149602464
1264,0.3634026348590851,0.5073241591453552,0.95,0.8,0.00019842513149602464
1265,0.3634556233882904,0.5073249936103821,0.95,0.8,0.00019842513149602464
1266,0.3633142411708832,0.5073240399360657,0.95,0.8,0.00019842513149602464
1267,0.3633907437324524,0.5073108077049255,0.95,0.8,0.00019842513149602464
1268,0.3633102476596832,0.5072956681251526,0.95,0.8,0.00019842513149602464
1269,0.3632971942424774,0.5072816610336304,0.95,0.8,0.00019842513149602464
1270,0.3633444309234619,0.5072759985923767,0.95,0.8,0.00019842513149602464
1271,0.363398939371109,0.507274866104126,0.95,0.8,0.00019842513149602464
1272,0.363386869430542,0.507274329662323,0.95,0.8,0.00019842513149602464
1273,0.36342018842697144,0.5072767734527588,0.95,0.8,0.00019842513149602464
1274,0.36331161856651306,0.5072873830795288,0.95,0.8,0.00019842513149602464
1275,0.36345741152763367,0.5072948932647705,0.95,0.8,0.00019842513149602464
1276,0.3633556663990021,0.5072908997535706,0.95,0.8,0.00019842513149602464
1277,0.3632860481739044,0.507286787033081,0.95,0.8,0.00015749013123685888
1278,0.363361656665802,0.507286548614502,0.95,0.8,0.00015749013123685888
1279,0.3634032905101776,0.5072962641716003,0.95,0.8,0.00015749013123685888
1280,0.3633017838001251,0.5073022842407227,0.95,0.8,0.00015749013123685888
1281,0.3633999228477478,0.5073132514953613,0.95,0.8,0.00015749013123685888
1282,0.3632759749889374,0.5073193907737732,0.95,0.8,0.00015749013123685888
1283,0.3633132576942444,0.5073283314704895,0.95,0.8,0.00015749013123685888
1284,0.36333292722702026,0.507341206073761,0.95,0.8,0.00015749013123685888
1285,0.3635178506374359,0.5073559284210205,0.95,0.8,0.00015749013123685888
1286,0.3633418381214142,0.5073649287223816,0.95,0.8,0.00015749013123685888
1287,0.3633780777454376,0.507371187210083,0.95,0.8,0.00015749013123685888
1288,0.3633178472518921,0.5073802471160889,0.95,0.8,0.00015749013123685888
1289,0.3633648157119751,0.5073885917663574,0.95,0.8,0.00015749013123685888
1290,0.3634699285030365,0.5073783993721008,0.95,0.8,0.00015749013123685888
1291,0.3633033335208893,0.5073738098144531,0.95,0.8,0.00015749013123685888
1292,0.36332952976226807,0.5073766112327576,0.95,0.8,0.00015749013123685888
1293,0.36334532499313354,0.5073829889297485,0.95,0.8,0.00015749013123685888
1294,0.3633117377758026,0.5073851943016052,0.95,0.8,0.00015749013123685888
1295,0.3632923364639282,0.5073890686035156,0.95,0.8,0.00015749013123685888
1296,0.363322377204895,0.5073918104171753,0.95,0.8,0.00015749013123685888
1297,0.3633438050746918,0.5073959231376648,0.95,0.8,0.00015749013123685888
1298,0.36336854100227356,0.507407009601593,0.95,0.8,0.00015749013123685888
1299,0.3634646534919739,0.5073940753936768,0.95,0.8,0.00015749013123685888
1300,0.3632887601852417,0.5073925256729126,0.95,0.8,0.00015749013123685888
1301,0.3633824586868286,0.507392168045044,0.95,0.8,0.00015749013123685888
1302,0.3633016347885132,0.5073938965797424,0.95,0.8,0.00015749013123685888
1303,0.3633572459220886,0.5073875784873962,0.95,0.8,0.00015749013123685888
1304,0.36338505148887634,0.5073900818824768,0.95,0.8,0.00015749013123685888
1305,0.36330127716064453,0.5073908567428589,0.95,0.8,0.00015749013123685888
1306,0.3633214235305786,0.5073911547660828,0.95,0.8,0.00015749013123685888
1307,0.3634105324745178,0.5073964595794678,0.95,0.8,0.00015749013123685888
1308,0.36330029368400574,0.5073974132537842,0.95,0.8,0.00015749013123685888
1309,0.3633187413215637,0.5074019432067871,0.95,0.8,0.00015749013123685888
1310,0.36333519220352173,0.5074141025543213,0.95,0.8,0.00015749013123685888
1311,0.36331188678741455,0.5074228644371033,0.95,0.8,0.00015749013123685888
1312,0.3635164201259613,0.507441520690918,0.95,0.8,0.00015749013123685888
1313,0.3633481562137604,0.5074551105499268,0.95,0.8,0.00015749013123685888
1314,0.36330047249794006,0.5074705481529236,0.95,0.8,0.00015749013123685888
1315,0.36328884959220886,0.507485032081604,0.95,0.8,0.00015749013123685888
1316,0.36332938075065613,0.5074997544288635,0.95,0.8,0.00015749013123685888
1317,0.3633151352405548,0.5075161457061768,0.95,0.8,0.00015749013123685888
1318,0.36347323656082153,0.5075381994247437,0.95,0.8,0.00015749013123685888
1319,0.36332541704177856,0.5075592994689941,0.95,0.8,0.00015749013123685888
1320,0.36330685019493103,0.5075830221176147,0.95,0.8,0.00015749013123685888
1321,0.36328601837158203,0.5075987577438354,0.95,0.8,0.00015749013123685888
1322,0.36333519220352173,0.5076115131378174,0.95,0.8,0.00015749013123685888
1323,0.3633541762828827,0.5076202750205994,0.95,0.8,0.00015749013123685888
1324,0.36328673362731934,0.5076238512992859,0.95,0.8,0.00015749013123685888
1325,0.36333054304122925,0.5076262354850769,0.95,0.8,0.00015749013123685888
1326,0.3633233606815338,0.5076279640197754,0.95,0.8,0.00015749013123685888
1327,0.3633248805999756,0.5076301097869873,0.95,0.8,0.00015749013123685888
1328,0.3633277416229248,0.507638692855835,0.95,0.8,0.00015749013123685888
1329,0.3632625639438629,0.5076388120651245,0.95,0.8,0.00015749013123685888
1330,0.36331117153167725,0.5076383352279663,0.95,0.8,0.00015749013123685888
1331,0.36335036158561707,0.5076459646224976,0.95,0.8,0.00015749013123685888
1332,0.36338987946510315,0.5076538324356079,0.95,0.8,0.00015749013123685888
1333,0.36330538988113403,0.5076568126678467,0.95,0.8,0.00015749013123685888
1334,0.36331403255462646,0.5076615810394287,0.95,0.8,0.00015749013123685888
1335,0.36330118775367737,0.5076644420623779,0.95,0.8,0.00015749013123685888
1336,0.3633018136024475,0.5076678991317749,0.95,0.8,0.00015749013123685888
1337,0.36332032084465027,0.50766921043396,0.95,0.8,0.00015749013123685888
1338,0.3633723556995392,0.5076718330383301,0.95,0.8,0.00015749013123685888
1339,0.3635273277759552,0.5076611042022705,0.95,0.8,0.00015749013123685888
1340,0.3633429706096649,0.507655680179596,0.95,0.8,0.00015749013123685888
1341,0.3633699119091034,0.5076487064361572,0.95,0.8,0.00015749013123685888
1342,0.36330100893974304,0.5076407790184021,0.95,0.8,0.00015749013123685888
1343,0.3633460998535156,0.507636547088623,0.95,0.8,0.00015749013123685888
1344,0.3633897006511688,0.5076336860656738,0.95,0.8,0.00015749013123685888
1345,0.36331385374069214,0.5076233148574829,0.95,0.8,0.00015749013123685888
1346,0.36332347989082336,0.5076221227645874,0.95,0.8,0.00015749013123685888
1347,0.36334148049354553,0.5076192021369934,0.95,0.8,0.00015749013123685888
1348,0.36332738399505615,0.5076146125793457,0.95,0.8,0.00015749013123685888
1349,0.36335185170173645,0.5076113343238831,0.95,0.8,0.00015749013123685888
1350,0.36331459879875183,0.5076085925102234,0.95,0.8,0.00015749013123685888
1351,0.36332905292510986,0.5076110363006592,0.95,0.8,0.00015749013123685888
1352,0.36331990361213684,0.507612407207489,0.95,0.8,0.00015749013123685888
1353,0.3634854257106781,0.5076102018356323,0.95,0.8,0.00015749013123685888
1354,0.3633147180080414,0.5076197981834412,0.95,0.8,0.00015749013123685888
1355,0.36341631412506104,0.5076311230659485,0.95,0.8,0.00015749013123685888
1356,0.36335375905036926,0.507636547088623,0.95,0.8,0.00015749013123685888
1357,0.36331596970558167,0.5076448321342468,0.95,0.8,0.00015749013123685888
1358,0.3632901906967163,0.5076565146446228,0.95,0.8,0.00015749013123685888
1359,0.36334696412086487,0.5076625943183899,0.95,0.8,0.00015749013123685888
1360,0.363366961479187,0.507675290107727,0.95,0.8,0.00015749013123685888
1361,0.3633279502391815,0.5076906681060791,0.95,0.8,0.00015749013123685888
1362,0.3632897436618805,0.5076968669891357,0.95,0.8,0.00015749013123685888
1363,0.3633357286453247,0.5077084898948669,0.95,0.8,0.00015749013123685888
1364,0.3633818030357361,0.5077180862426758,0.95,0.8,0.00015749013123685888
1365,0.36332085728645325,0.5077230334281921,0.95,0.8,0.00015749013123685888
1366,0.3633570373058319,0.5077325701713562,0.95,0.8,0.00015749013123685888
1367,0.36333075165748596,0.5077422261238098,0.95,0.8,0.00015749013123685888
1368,0.36329418420791626,0.5077531337738037,0.95,0.8,0.00015749013123685888
1369,0.36330360174179077,0.507762610912323,0.95,0.8,0.00015749013123685888
1370,0.3633367419242859,0.5077641010284424,0.95,0.8,0.00015749013123685888
1371,0.3634253442287445,0.5077328085899353,0.95,0.8,0.00015749013123685888
1372,0.36330413818359375,0.507707417011261,0.95,0.8,0.00015749013123685888
1373,0.36329755187034607,0.5076839327812195,0.95,0.8,0.00015749013123685888
1374,0.3633951246738434,0.5076557397842407,0.95,0.8,0.00015749013123685888
1375,0.36330536007881165,0.5076335072517395,0.95,0.8,0.00015749013123685888
1376,0.3633345067501068,0.5076122879981995,0.95,0.8,0.00015749013123685888
1377,0.36329400539398193,0.5075891017913818,0.95,0.8,0.00015749013123685888
1378,0.3633609712123871,0.5075600743293762,0.95,0.8,0.00012499999999999976
1379,0.3633403778076172,0.5075318217277527,0.95,0.8,0.00012499999999999976
1380,0.36333420872688293,0.5075154304504395,0.95,0.8,0.00012499999999999976
1381,0.3633386492729187,0.5075006484985352,0.95,0.8,0.00012499999999999976
1382,0.3633338212966919,0.5074906349182129,0.95,0.8,0.00012499999999999976
1383,0.3633003234863281,0.5074798464775085,0.95,0.8,0.00012499999999999976
1384,0.36329102516174316,0.5074732303619385,0.95,0.8,0.00012499999999999976
1385,0.36343082785606384,0.5074691772460938,0.95,0.8,0.00012499999999999976
1386,0.36330291628837585,0.5074653625488281,0.95,0.8,0.00012499999999999976
1387,0.363291472196579,0.507454514503479,0.95,0.8,0.00012499999999999976
1388,0.3633124828338623,0.5074490308761597,0.95,0.8,0.00012499999999999976
1389,0.36334502696990967,0.5074406862258911,0.95,0.8,0.00012499999999999976
1390,0.363364040851593,0.5074341297149658,0.95,0.8,0.00012499999999999976
1391,0.3633285164833069,0.5074283480644226,0.95,0.8,0.00012499999999999976
1392,0.3633667230606079,0.5074259042739868,0.95,0.8,0.00012499999999999976
1393,0.363310307264328,0.5074264407157898,0.95,0.8,0.00012499999999999976
1394,0.3632528781890869,0.5074235796928406,0.95,0.8,0.00012499999999999976
1395,0.36334601044654846,0.5074220299720764,0.95,0.8,0.00012499999999999976
1396,0.36331841349601746,0.5074187517166138,0.95,0.8,0.00012499999999999976
1397,0.36331379413604736,0.5074185729026794,0.95,0.8,0.00012499999999999976
1398,0.3633042275905609,0.5074152946472168,0.95,0.8,0.00012499999999999976
1399,0.36330029368400574,0.5074115991592407,0.95,0.8,0.00012499999999999976
1400,0.36327826976776123,0.507409393787384,0.95,0.8,0.00012499999999999976
1401,0.36338919401168823,0.5074124336242676,0.95,0.8,0.00012499999999999976
1402,0.36330416798591614,0.5074108242988586,0.95,0.8,0.00012499999999999976
1403,0.36341315507888794,0.5074213743209839,0.95,0.8,0.00012499999999999976
1404,0.36336883902549744,0.5074261426925659,0.95,0.8,0.00012499999999999976
1405,0.3633098602294922,0.5074326395988464,0.95,0.8,0.00012499999999999976
1406,0.36330315470695496,0.5074394345283508,0.95,0.8,0.00012499999999999976
1407,0.36330103874206543,0.507440447807312,0.95,0.8,0.00012499999999999976
1408,0.36330029368400574,0.5074451565742493,0.95,0.8,0.00012499999999999976
1409,0.3632943332195282,0.5074479579925537,0.95,0.8,0.00012499999999999976
1410,0.36332371830940247,0.5074508786201477,0.95,0.8,0.00012499999999999976
1411,0.36337602138519287,0.5074511766433716,0.95,0.8,0.00012499999999999976
1412,0.3632830083370209,0.5074518918991089,0.95,0.8,0.00012499999999999976
1413,0.36328819394111633,0.5074561834335327,0.95,0.8,0.00012499999999999976
1414,0.3633095622062683,0.5074528455734253,0.95,0.8,0.00012499999999999976
1415,0.3633204698562622,0.5074498057365417,0.95,0.8,0.00012499999999999976
1416,0.36331990361213684,0.5074476003646851,0.95,0.8,0.00012499999999999976
1417,0.36327651143074036,0.5074410438537598,0.95,0.8,0.00012499999999999976
1418,0.3632946312427521,0.5074386596679688,0.95,0.8,0.00012499999999999976
1419,0.36358752846717834,0.5074506998062134,0.95,0.8,0.00012499999999999976
1420,0.36334028840065,0.5074655413627625,0.95,0.8,0.00012499999999999976
1421,0.3633277118206024,0.5074812769889832,0.95,0.8,0.00012499999999999976
1422,0.3632824420928955,0.5074948072433472,0.95,0.8,0.00012499999999999976
1423,0.36331331729888916,0.5075079202651978,0.95,0.8,0.00012499999999999976
1424,0.36328503489494324,0.5075219869613647,0.95,0.8,0.00012499999999999976
1425,0.3633297383785248,0.5075406432151794,0.95,0.8,0.00012499999999999976
1426,0.36330726742744446,0.5075568556785583,0.95,0.8,0.00012499999999999976
1427,0.36331820487976074,0.5075657367706299,0.95,0.8,0.00012499999999999976
1428,0.36335280537605286,0.5075784921646118,0.95,0.8,0.00012499999999999976
1429,0.3632943034172058,0.5075867176055908,0.95,0.8,0.00012499999999999976
1430,0.3633120656013489,0.5075963735580444,0.95,0.8,0.00012499999999999976
1431,0.36333343386650085,0.5076029300689697,0.95,0.8,0.00012499999999999976
1432,0.36331692337989807,0.5076073408126831,0.95,0.8,0.00012499999999999976
1433,0.3634096086025238,0.5076135396957397,0.95,0.8,0.00012499999999999976
1434,0.3633042275905609,0.5076228976249695,0.95,0.8,0.00012499999999999976
1435,0.36330410838127136,0.5076276063919067,0.95,0.8,0.00012499999999999976
1436,0.36335861682891846,0.5076390504837036,0.95,0.8,0.00012499999999999976
1437,0.36329832673072815,0.5076444149017334,0.95,0.8,0.00012499999999999976
1438,0.3633861839771271,0.5076444745063782,0.95,0.8,0.00012499999999999976
1439,0.3632950186729431,0.5076481699943542,0.95,0.8,0.00012499999999999976
1440,0.36330029368400574,0.5076478719711304,0.95,0.8,0.00012499999999999976
1441,0.36330416798591614,0.5076478123664856,0.95,0.8,0.00012499999999999976
1442,0.3633174002170563,0.507648229598999,0.95,0.8,0.00012499999999999976
1443,0.3632805347442627,0.5076503753662109,0.95,0.8,0.00012499999999999976
1444,0.3633538484573364,0.5076512694358826,0.95,0.8,0.00012499999999999976
1445,0.3632846474647522,0.5076484084129333,0.95,0.8,0.00012499999999999976
1446,0.3633020520210266,0.5076481103897095,0.95,0.8,0.00012499999999999976
1447,0.36333656311035156,0.5076461434364319,0.95,0.8,0.00012499999999999976
1448,0.3633093535900116,0.5076404213905334,0.95,0.8,0.00012499999999999976
1449,0.36330389976501465,0.5076377987861633,0.95,0.8,0.00012499999999999976
1450,0.3633069097995758,0.5076391696929932,0.95,0.8,0.00012499999999999976
1451,0.3633975088596344,0.5076358914375305,0.95,0.8,0.00012499999999999976
1452,0.3632836937904358,0.5076375007629395,0.95,0.8,0.00012499999999999976
1453,0.36328810453414917,0.5076359510421753,0.95,0.8,0.00012499999999999976
1454,0.3634006977081299,0.5076396465301514,0.95,0.8,0.00012499999999999976
1455,0.363284707069397,0.5076398253440857,0.95,0.8,0.00012499999999999976
1456,0.36328110098838806,0.5076428651809692,0.95,0.8,0.00012499999999999976
1457,0.3634266257286072,0.5076240301132202,0.95,0.8,0.00012499999999999976
1458,0.3632916212081909,0.5076088905334473,0.95,0.8,0.00012499999999999976
1459,0.36330682039260864,0.5075981020927429,0.95,0.8,0.00012499999999999976
1460,0.36331695318222046,0.5075863599777222,0.95,0.8,0.00012499999999999976
1461,0.36331480741500854,0.5075650215148926,0.95,0.8,0.00012499999999999976
1462,0.3633812367916107,0.5075468420982361,0.95,0.8,0.00012499999999999976
1463,0.36371269822120667,0.5075370669364929,0.95,0.8,0.00012499999999999976
1464,0.36331915855407715,0.5075213313102722,0.95,0.8,0.00012499999999999976
1465,0.36332425475120544,0.5075066089630127,0.95,0.8,0.00012499999999999976
1466,0.36331310868263245,0.5075017809867859,0.95,0.8,0.00012499999999999976
1467,0.3632781505584717,0.5074926614761353,0.95,0.8,0.00012499999999999976
1468,0.36330655217170715,0.507494330406189,0.95,0.8,0.00012499999999999976
1469,0.3632908761501312,0.507489800453186,0.95,0.8,0.00012499999999999976
1470,0.3633243143558502,0.507480800151825,0.95,0.8,0.00012499999999999976
1471,0.36333316564559937,0.5074760317802429,0.95,0.8,0.00012499999999999976
1472,0.36329883337020874,0.5074715614318848,0.95,0.8,0.00012499999999999976
1473,0.3632889688014984,0.5074700117111206,0.95,0.8,0.00012499999999999976
1474,0.3633185625076294,0.5074675679206848,0.95,0.8,0.00012499999999999976
1475,0.3633233904838562,0.5074616074562073,0.95,0.8,0.00012499999999999976
1476,0.3633079528808594,0.5074561834335327,0.95,0.8,0.00012499999999999976
1477,0.36332979798316956,0.5074521899223328,0.95,0.8,0.00012499999999999976
1478,0.36329394578933716,0.5074450969696045,0.95,0.8,0.00012499999999999976
1479,0.3633022606372833,0.5074466466903687,0.95,0.8,0.0001
1480,0.3633058965206146,0.5074455142021179,0.95,0.8,0.0001
1481,0.3632781505584717,0.5074446797370911,0.95,0.8,0.0001
1482,0.3632660210132599,0.5074471831321716,0.95,0.8,0.0001
1483,0.3633691072463989,0.5074446797370911,0.95,0.8,0.0001
1484,0.3634340167045593,0.5074446201324463,0.95,0.8,0.0001
1485,0.3632892668247223,0.5074483752250671,0.95,0.8,0.0001
1486,0.36330631375312805,0.5074524283409119,0.95,0.8,0.0001
1487,0.3633365333080292,0.5074515342712402,0.95,0.8,0.0001
1488,0.3633497953414917,0.5074601173400879,0.95,0.8,0.0001
1489,0.36334237456321716,0.507455050945282,0.95,0.8,0.0001
1490,0.363351047039032,0.5074544548988342,0.95,0.8,0.0001
1491,0.363300621509552,0.5074475407600403,0.95,0.8,0.0001
1492,0.3633379638195038,0.5074478387832642,0.95,0.8,0.0001
1493,0.3633188009262085,0.5074434876441956,0.95,0.8,0.0001
1494,0.3633453845977783,0.50743567943573,0.95,0.8,0.0001
1495,0.3632873594760895,0.5074305534362793,0.95,0.8,0.0001
1496,0.36327672004699707,0.5074222087860107,0.95,0.8,0.0001
1497,0.36329546570777893,0.5074197053909302,0.95,0.8,0.0001
1498,0.3633095622062683,0.5074164867401123,0.95,0.8,0.0001
1499,0.3633132874965668,0.5074138045310974,0.95,0.8,0.0001
1500,0.3633219003677368,0.507412850856781,0.95,0.8,0.0001
1501,0.36328762769699097,0.5074111223220825,0.95,0.8,0.0001
1502,0.36330172419548035,0.5074086785316467,0.95,0.8,0.0001
1503,0.3632994592189789,0.5074058771133423,0.95,0.8,0.0001
1504,0.3632875084877014,0.5074037313461304,0.95,0.8,0.0001
1505,0.3633454144001007,0.5073966979980469,0.95,0.8,0.0001
1506,0.36332565546035767,0.5073946118354797,0.95,0.8,0.0001
1507,0.363313227891922,0.5073806047439575,0.95,0.8,0.0001
1508,0.3636731207370758,0.5073774456977844,0.95,0.8,0.0001
1509,0.3637484014034271,0.5073490738868713,0.95,0.8,0.0001
1510,0.36330336332321167,0.507335364818573,0.95,0.8,0.0001
1511,0.3632972836494446,0.5073209404945374,0.95,0.8,0.0001
1512,0.36328932642936707,0.5073118805885315,0.95,0.8,0.0001
1513,0.36326828598976135,0.5073009729385376,0.95,0.8,0.0001
1514,0.36332061886787415,0.5072829723358154,0.95,0.8,0.0001
1515,0.3633035719394684,0.5072702169418335,0.95,0.8,0.0001
1516,0.3633086383342743,0.5072543025016785,0.95,0.8,0.0001
1517,0.3632771670818329,0.5072455406188965,0.95,0.8,0.0001
1518,0.36337485909461975,0.5072402358055115,0.95,0.8,0.0001
1519,0.3632863759994507,0.5072371959686279,0.95,0.8,0.0001
1520,0.36360642313957214,0.5072276592254639,0.95,0.8,0.0001
1521,0.36332663893699646,0.5072207450866699,0.95,0.8,0.0001
1522,0.363323450088501,0.507220447063446,0.95,0.8,0.0001
1523,0.3633262515068054,0.5072115063667297,0.95,0.8,0.0001
1524,0.3633612096309662,0.5072093605995178,0.95,0.8,0.0001
1525,0.36345499753952026,0.5072180032730103,0.95,0.8,0.0001
1526,0.36329391598701477,0.5072180032730103,0.95,0.8,0.0001
1527,0.3633955419063568,0.5072252750396729,0.95,0.8,0.0001
1528,0.36330491304397583,0.5072301030158997,0.95,0.8,0.0001
1529,0.3633691072463989,0.5072393417358398,0.95,0.8,0.0001
1530,0.36330780386924744,0.5072440505027771,0.95,0.8,0.0001
1531,0.3633512258529663,0.5072532892227173,0.95,0.8,0.0001
1532,0.36330780386924744,0.5072594285011292,0.95,0.8,0.0001
1533,0.3632916212081909,0.5072667598724365,0.95,0.8,0.0001
1534,0.3632790744304657,0.5072755813598633,0.95,0.8,0.0001
1535,0.36329540610313416,0.5072815418243408,0.95,0.8,0.0001
1536,0.36330822110176086,0.507288932800293,0.95,0.8,0.0001
1537,0.36333033442497253,0.5072948336601257,0.95,0.8,0.0001
1538,0.3633002042770386,0.5073015093803406,0.95,0.8,0.0001
1539,0.3633370101451874,0.5073165893554688,0.95,0.8,0.0001
1540,0.3634108603000641,0.5073234438896179,0.95,0.8,0.0001
1541,0.36330509185791016,0.5073307752609253,0.95,0.8,0.0001
1542,0.36328327655792236,0.5073375105857849,0.95,0.8,0.0001
1543,0.3633105158805847,0.5073434710502625,0.95,0.8,0.0001
1544,0.36328816413879395,0.5073480606079102,0.95,0.8,0.0001
1545,0.3633483946323395,0.5073525309562683,0.95,0.8,0.0001
1546,0.3633357584476471,0.5073580145835876,0.95,0.8,0.0001
1547,0.36333587765693665,0.5073661208152771,0.95,0.8,0.0001
1548,0.3633088767528534,0.5073694586753845,0.95,0.8,0.0001
1549,0.36328408122062683,0.5073763132095337,0.95,0.8,0.0001
1550,0.3633110821247101,0.5073825716972351,0.95,0.8,0.0001
1551,0.363310307264328,0.5073879957199097,0.95,0.8,0.0001
1552,0.3632815182209015,0.5073928236961365,0.95,0.8,0.0001
1553,0.36330047249794006,0.5073967576026917,0.95,0.8,0.0001
1554,0.36332520842552185,0.5074010491371155,0.95,0.8,0.0001
1555,0.36336255073547363,0.5074094533920288,0.95,0.8,0.0001
1556,0.3633391857147217,0.5074143409729004,0.95,0.8,0.0001
1557,0.36328375339508057,0.5074164271354675,0.95,0.8,0.0001
1558,0.3633408844470978,0.5074267983436584,0.95,0.8,0.0001
1559,0.3633294403553009,0.5074321031570435,0.95,0.8,0.0001
1560,0.3633303940296173,0.507436990737915,0.95,0.8,0.0001
1561,0.363363653421402,0.5074441432952881,0.95,0.8,0.0001
1562,0.36328402161598206,0.5074523687362671,0.95,0.8,0.0001
1563,0.3633241653442383,0.50745689868927,0.95,0.8,0.0001
1564,0.3632924556732178,0.507462739944458,0.95,0.8,0.0001
1565,0.36334729194641113,0.5074701905250549,0.95,0.8,0.0001
1566,0.3633202016353607,0.5074767470359802,0.95,0.8,0.0001
1567,0.36337652802467346,0.5074833035469055,0.95,0.8,0.0001
1568,0.36328044533729553,0.5074930787086487,0.95,0.8,0.0001
1569,0.3633480966091156,0.5074948668479919,0.95,0.8,0.0001
1570,0.3633301854133606,0.5074959397315979,0.95,0.8,0.0001
1571,0.36330708861351013,0.50750333070755,0.95,0.8,0.0001
1572,0.36330854892730713,0.5075107216835022,0.95,0.8,0.0001
1573,0.36330822110176086,0.5075125694274902,0.95,0.8,0.0001
1574,0.3632793128490448,0.5075156688690186,0.95,0.8,0.0001
1575,0.3633030354976654,0.5075168013572693,0.95,0.8,0.0001
1576,0.36334359645843506,0.507523775100708,0.95,0.8,0.0001
1577,0.36328768730163574,0.5075233578681946,0.95,0.8,0.0001
1578,0.3632887005805969,0.5075268745422363,0.95,0.8,0.0001
1579,0.363301157951355,0.5075303316116333,0.95,0.8,0.0001
1580,0.36330410838127136,0.5075269937515259,0.95,0.8,0.0001
1581,0.36327534914016724,0.5075250864028931,0.95,0.8,0.0001
1582,0.363320529460907,0.5075237154960632,0.95,0.8,0.0001
1583,0.36333319544792175,0.5075114369392395,0.95,0.8,0.0001
1584,0.3633996546268463,0.5074939727783203,0.95,0.8,0.0001
1585,0.3632926940917969,0.5074796676635742,0.95,0.8,0.0001
1586,0.3633154630661011,0.507466733455658,0.95,0.8,0.0001
1587,0.36331427097320557,0.5074561238288879,0.95,0.8,0.0001
1588,0.3634357452392578,0.5074406266212463,0.95,0.8,0.0001
1589,0.36331021785736084,0.5074286460876465,0.95,0.8,0.0001
1590,0.36329540610313416,0.5074117183685303,0.95,0.8,0.0001
1591,0.3632981479167938,0.5074013471603394,0.95,0.8,0.0001
1592,0.3633190393447876,0.507392406463623,0.95,0.8,0.0001
1593,0.3633427321910858,0.5073835849761963,0.95,0.8,0.0001
1594,0.363433301448822,0.507382333278656,0.95,0.8,0.0001
1595,0.36328864097595215,0.5073798894882202,0.95,0.8,0.0001
1596,0.36330345273017883,0.507378101348877,0.95,0.8,0.0001
1597,0.3632846474647522,0.5073805451393127,0.95,0.8,0.0001
1598,0.36329883337020874,0.5073767900466919,0.95,0.8,0.0001
1599,0.3633102476596832,0.5073720812797546,0.95,0.8,0.0001
1600,0.36328125,0.5073660612106323,0.95,0.8,0.0001
1601,0.3632890284061432,0.5073623061180115,0.95,0.8,0.0001
1602,0.36333101987838745,0.5073609352111816,0.95,0.8,0.0001
1603,0.36332255601882935,0.5073620676994324,0.95,0.8,0.0001
1604,0.3632930815219879,0.5073621869087219,0.95,0.8,0.0001
1605,0.36331236362457275,0.5073623657226562,0.95,0.8,0.0001
1606,0.36329641938209534,0.5073636174201965,0.95,0.8,0.0001
1607,0.3633996844291687,0.5073485970497131,0.95,0.8,0.0001
1608,0.3632795810699463,0.5073413252830505,0.95,0.8,0.0001
1609,0.36329686641693115,0.5073316097259521,0.95,0.8,0.0001
1610,0.363289475440979,0.5073238611221313,0.95,0.8,0.0001
1611,0.36333367228507996,0.5073220729827881,0.95,0.8,0.0001
1612,0.36328455805778503,0.5073156952857971,0.95,0.8,0.0001
1613,0.36331596970558167,0.5073109269142151,0.95,0.8,0.0001
1614,0.36332905292510986,0.507307231426239,0.95,0.8,0.0001
1615,0.36329230666160583,0.5073043704032898,0.95,0.8,0.0001
1616,0.3632912039756775,0.5073027610778809,0.95,0.8,0.0001
1617,0.36333543062210083,0.5072968602180481,0.95,0.8,0.0001
1618,0.3632804751396179,0.5072923898696899,0.95,0.8,0.0001
1619,0.3632754385471344,0.5072895288467407,0.95,0.8,0.0001
1620,0.36329635977745056,0.5072839260101318,0.95,0.8,0.0001
1621,0.3633628189563751,0.5072674751281738,0.95,0.8,0.0001
1622,0.36329877376556396,0.5072522163391113,0.95,0.8,0.0001
1623,0.3633076846599579,0.5072376728057861,0.95,0.8,0.0001
1624,0.36335331201553345,0.5072248578071594,0.95,0.8,0.0001
1625,0.3632933795452118,0.5072118639945984,0.95,0.8,0.0001
1626,0.36328479647636414,0.5072038769721985,0.95,0.8,0.0001
1627,0.3632786273956299,0.5071970224380493,0.95,0.8,0.0001
1628,0.36332809925079346,0.5071809887886047,0.95,0.8,0.0001
1629,0.3633715808391571,0.5071679353713989,0.95,0.8,0.0001
1630,0.3633189797401428,0.5071617960929871,0.95,0.8,0.0001
1631,0.36335036158561707,0.507157564163208,0.95,0.8,0.0001
1632,0.3633154630661011,0.507148265838623,0.95,0.8,0.0001
1633,0.363311767578125,0.507144570350647,0.95,0.8,0.0001
1634,0.36329758167266846,0.507138192653656,0.95,0.8,0.0001
1635,0.36333394050598145,0.5071330666542053,0.95,0.8,0.0001
1636,0.36334455013275146,0.5071340799331665,0.95,0.8,0.0001
1637,0.3632873296737671,0.5071296691894531,0.95,0.8,0.0001
1638,0.36344900727272034,0.5071309804916382,0.95,0.8,0.0001
1639,0.36333712935447693,0.5071313977241516,0.95,0.8,0.0001
1640,0.3635461926460266,0.5071027874946594,0.95,0.8,0.0001
1641,0.36330240964889526,0.5070729851722717,0.95,0.8,0.0001
1642,0.3633030354976654,0.5070493817329407,0.95,0.8,0.0001
1643,0.3633383512496948,0.5070298910140991,0.95,0.8,0.0001
1644,0.36328259110450745,0.5070151686668396,0.95,0.8,0.0001
1645,0.36331799626350403,0.50699782371521,0.95,0.8,0.0001
1646,0.3632955551147461,0.5069867968559265,0.95,0.8,0.0001
1647,0.36330702900886536,0.5069771409034729,0.95,0.8,0.0001
1648,0.363320529460907,0.506964921951294,0.95,0.8,0.0001
1649,0.36335718631744385,0.5069570541381836,0.95,0.8,0.0001
1650,0.3633113503456116,0.5069416761398315,0.95,0.8,0.0001
1651,0.36329716444015503,0.506937563419342,0.95,0.8,0.0001
1652,0.3633178770542145,0.5069321393966675,0.95,0.8,0.0001
1653,0.36327579617500305,0.5069233179092407,0.95,0.8,0.0001
1654,0.3632955551147461,0.506918728351593,0.95,0.8,0.0001
1655,0.36333850026130676,0.506912887096405,0.95,0.8,0.0001
1656,0.36331504583358765,0.5069063901901245,0.95,0.8,0.0001
1657,0.3632785379886627,0.506904125213623,0.95,0.8,0.0001
1658,0.36329883337020874,0.50690096616745,0.95,0.8,0.0001
1659,0.36330467462539673,0.5068921446800232,0.95,0.8,0.0001
1660,0.3632957339286804,0.5068901181221008,0.95,0.8,0.0001
1661,0.36334937810897827,0.5068849325180054,0.95,0.8,0.0001
1662,0.36329346895217896,0.506880521774292,0.95,0.8,0.0001
1663,0.36328211426734924,0.50687575340271,0.95,0.8,0.0001
1664,0.3633044362068176,0.5068742632865906,0.95,0.8,0.0001
1665,0.36332595348358154,0.5068621635437012,0.95,0.8,0.0001
1666,0.36326590180397034,0.5068541765213013,0.95,0.8,0.0001
1667,0.3632734715938568,0.506849467754364,0.95,0.8,0.0001
1668,0.3633517920970917,0.5068365931510925,0.95,0.8,0.0001
1669,0.36333054304122925,0.506827712059021,0.95,0.8,0.0001
1670,0.3633842170238495,0.506822943687439,0.95,0.8,0.0001
1671,0.36330580711364746,0.5068168640136719,0.95,0.8,0.0001
1672,0.3632766306400299,0.5068129897117615,0.95,0.8,0.0001
1673,0.3633124530315399,0.5068081617355347,0.95,0.8,0.0001
1674,0.3632930815219879,0.506807804107666,0.95,0.8,0.0001
1675,0.3633333146572113,0.506808876991272,0.95,0.8,0.0001
1676,0.3632948398590088,0.5068103075027466,0.95,0.8,0.0001
1677,0.3633056879043579,0.5068103671073914,0.95,0.8,0.0001
1678,0.3632877469062805,0.506814181804657,0.95,0.8,0.0001
1679,0.36334460973739624,0.5068178772926331,0.95,0.8,0.0001
1680,0.363291472196579,0.5068200826644897,0.95,0.8,0.0001
1681,0.3633154332637787,0.5068244338035583,0.95,0.8,0.0001
1682,0.3633555471897125,0.5068252086639404,0.95,0.8,0.0001
1683,0.3633333444595337,0.5068318843841553,0.95,0.8,0.0001
1684,0.3632883131504059,0.5068371891975403,0.95,0.8,0.0001
1685,0.36332595348358154,0.5068382620811462,0.95,0.8,0.0001
1686,0.3632931113243103,0.5068427920341492,0.95,0.8,0.0001
1687,0.3632907569408417,0.5068448781967163,0.95,0.8,0.0001
1688,0.36332741379737854,0.5068489909172058,0.95,0.8,0.0001
1689,0.36332884430885315,0.5068452954292297,0.95,0.8,0.0001
1690,0.36331862211227417,0.5068497657775879,0.95,0.8,0.0001
1691,0.36339977383613586,0.506858766078949,0.95,0.8,0.0001
1692,0.36329925060272217,0.5068681240081787,0.95,0.8,0.0001
1693,0.36331185698509216,0.5068724155426025,0.95,0.8,0.0001
1694,0.36331111192703247,0.5068791508674622,0.95,0.8,0.0001
1695,0.36329516768455505,0.5068824887275696,0.95,0.8,0.0001
1696,0.36334124207496643,0.5068905353546143,0.95,0.8,0.0001
1697,0.3633018434047699,0.5068901181221008,0.95,0.8,0.0001
1698,0.3633066415786743,0.5068956613540649,0.95,0.8,0.0001
1699,0.3632979989051819,0.5069007277488708,0.95,0.8,0.0001
1700,0.3633659780025482,0.5069021582603455,0.95,0.8,0.0001
1701,0.3632966876029968,0.5069069862365723,0.95,0.8,0.0001
1702,0.3632892668247223,0.506913959980011,0.95,0.8,0.0001
1703,0.36329731345176697,0.506922721862793,0.95,0.8,0.0001
1704,0.36332616209983826,0.5069282650947571,0.95,0.8,0.0001
1705,0.3633102476596832,0.5069365501403809,0.95,0.8,0.0001
1706,0.3632737100124359,0.5069433450698853,0.95,0.8,0.0001
1707,0.363292932510376,0.5069502592086792,0.95,0.8,0.0001
1708,0.36326083540916443,0.5069559216499329,0.95,0.8,0.0001
1709,0.36330005526542664,0.5069614052772522,0.95,0.8,0.0001
1710,0.3632824420928955,0.5069693922996521,0.95,0.8,0.0001
1711,0.3632856011390686,0.506974458694458,0.95,0.8,0.0001
1712,0.36330634355545044,0.5069824457168579,0.95,0.8,0.0001
1713,0.36331748962402344,0.5069878101348877,0.95,0.8,0.0001
1714,0.36329638957977295,0.5069916844367981,0.95,0.8,0.0001
1715,0.3632808029651642,0.5069941878318787,0.95,0.8,0.0001
1716,0.3633565902709961,0.5069989562034607,0.95,0.8,0.0001
1717,0.36328256130218506,0.5070015788078308,0.95,0.8,0.0001
1718,0.3632865250110626,0.5070075392723083,0.95,0.8,0.0001
1719,0.3633004128932953,0.5070133805274963,0.95,0.8,0.0001
1720,0.36329734325408936,0.5070202946662903,0.95,0.8,0.0001
1721,0.36329105496406555,0.5070195198059082,0.95,0.8,0.0001
1722,0.36329174041748047,0.5070196390151978,0.95,0.8,0.0001
1723,0.36329761147499084,0.5070193409919739,0.95,0.8,0.0001
1724,0.3632938265800476,0.5070208311080933,0.95,0.8,0.0001
1725,0.3633342385292053,0.5070257782936096,0.95,0.8,0.0001
1726,0.36334145069122314,0.5070252418518066,0.95,0.8,0.0001
1727,0.36337462067604065,0.5070331692695618,0.95,0.8,0.0001
1728,0.36331596970558167,0.5070365071296692,0.95,0.8,0.0001
1729,0.3633614778518677,0.507049560546875,0.95,0.8,0.0001
1730,0.3633190095424652,0.5070555806159973,0.95,0.8,0.0001
1731,0.3633045256137848,0.5070677995681763,0.95,0.8,0.0001
1732,0.36328354477882385,0.5070739984512329,0.95,0.8,0.0001
1733,0.3633035719394684,0.5070852041244507,0.95,0.8,0.0001
1734,0.36337706446647644,0.5070953369140625,0.95,0.8,0.0001
1735,0.3633233308792114,0.507100522518158,0.95,0.8,0.0001
1736,0.3632989525794983,0.5071079730987549,0.95,0.8,0.0001
1737,0.36329883337020874,0.5071118474006653,0.95,0.8,0.0001
1738,0.3633021116256714,0.5071141123771667,0.95,0.8,0.0001
1739,0.3632948696613312,0.50711590051651,0.95,0.8,0.0001
1740,0.3633406162261963,0.5071135759353638,0.95,0.8,0.0001
1741,0.36334192752838135,0.5071154832839966,0.95,0.8,0.0001
1742,0.3632970452308655,0.5071159601211548,0.95,0.8,0.0001
1743,0.36334988474845886,0.5071181654930115,0.95,0.8,0.0001
1744,0.3632795214653015,0.5071222186088562,0.95,0.8,0.0001
1745,0.3632873296737671,0.5071249604225159,0.95,0.8,0.0001
1746,0.36327582597732544,0.5071253180503845,0.95,0.8,0.0001
1747,0.3632742762565613,0.5071286559104919,0.95,0.8,0.0001
1748,0.36330699920654297,0.5071313381195068,0.95,0.8,0.0001
1749,0.36331817507743835,0.5071226358413696,0.95,0.8,0.0001
