,train loss,val loss,train acc,val acc,lr
0,0.6754782795906067,0.669700562953949,0.69,0.64,0.001
1,0.659639298915863,0.6610300540924072,0.69,0.64,0.001
2,0.6451494097709656,0.6540254354476929,0.69,0.64,0.001
3,0.6320115327835083,0.6491073369979858,0.69,0.64,0.001
4,0.6206322312355042,0.646881103515625,0.69,0.64,0.001
5,0.6118070483207703,0.6475897431373596,0.69,0.64,0.001
6,0.6063452959060669,0.649840235710144,0.69,0.64,0.001
7,0.6036941409111023,0.650709867477417,0.69,0.64,0.001
8,0.6011112928390503,0.6480494737625122,0.69,0.64,0.001
9,0.5957849621772766,0.6414260864257812,0.69,0.64,0.001
10,0.5870935320854187,0.6324170827865601,0.69,0.64,0.001
11,0.5773121118545532,0.6238845586776733,0.7,0.62,0.001
12,0.5696958899497986,0.6178632974624634,0.72,0.64,0.001
13,0.5656012892723083,0.6141263842582703,0.73,0.7,0.001
14,0.5633518695831299,0.6107125878334045,0.77,0.69,0.001
15,0.5597122311592102,0.6063427925109863,0.76,0.68,0.001
16,0.553402841091156,0.6010022163391113,0.76,0.69,0.001
17,0.5455490946769714,0.5943940877914429,0.76,0.7,0.001
18,0.5376282930374146,0.5859378576278687,0.78,0.72,0.001
19,0.5288890600204468,0.5888149738311768,0.8,0.69,0.001
20,0.5253122448921204,0.5871817469596863,0.79,0.69,0.001
21,0.5168932676315308,0.5860751271247864,0.81,0.73,0.001
22,0.5209718346595764,0.5871709585189819,0.79,0.7,0.001
23,0.5137091279029846,0.5904871225357056,0.8,0.7,0.001
24,0.5178031325340271,0.5846717357635498,0.79,0.71,0.001
25,0.5145800113677979,0.5806020498275757,0.8,0.73,0.001
26,0.5219641327857971,0.5886131525039673,0.79,0.71,0.001
27,0.5164814591407776,0.6005176901817322,0.79,0.69,0.001
28,0.5162615180015564,0.6103134155273438,0.76,0.68,0.001
29,0.5244119763374329,0.5802445411682129,0.78,0.73,0.001
30,0.515654444694519,0.5980578064918518,0.81,0.69,0.001
31,0.5469768643379211,0.5912654399871826,0.74,0.7,0.001
32,0.5448222160339355,0.5789608359336853,0.75,0.73,0.001
33,0.5237743854522705,0.5680538415908813,0.77,0.73,0.001
34,0.5087759494781494,0.5712510347366333,0.82,0.72,0.001
35,0.5163944959640503,0.5717377066612244,0.78,0.72,0.001
36,0.5252078175544739,0.5689590573310852,0.77,0.72,0.001
37,0.5285723209381104,0.5627855658531189,0.77,0.73,0.001
38,0.5247818231582642,0.5555902123451233,0.77,0.75,0.001
39,0.5155587196350098,0.5580703616142273,0.78,0.75,0.001
40,0.4994080066680908,0.580644428730011,0.8,0.69,0.001
41,0.48930710554122925,0.6053648591041565,0.81,0.69,0.001
42,0.49680379033088684,0.6148461699485779,0.79,0.68,0.001
43,0.506783127784729,0.6033223271369934,0.78,0.7,0.001
44,0.49376586079597473,0.5790383815765381,0.79,0.71,0.001
45,0.47508713603019714,0.5566346645355225,0.83,0.74,0.001
46,0.4756549894809723,0.5480967164039612,0.84,0.77,0.001
47,0.48183971643447876,0.5462255477905273,0.83,0.76,0.001
48,0.47926846146583557,0.5500115156173706,0.84,0.75,0.001
49,0.4650830328464508,0.5692326426506042,0.85,0.71,0.001
50,0.45496150851249695,0.5837181210517883,0.85,0.69,0.001
51,0.46614766120910645,0.5758599638938904,0.85,0.69,0.001
52,0.4573274254798889,0.5514801740646362,0.87,0.74,0.001
53,0.44588223099708557,0.5385699272155762,0.87,0.74,0.001
54,0.4560164213180542,0.5396155118942261,0.86,0.73,0.001
55,0.44943782687187195,0.551090657711029,0.85,0.75,0.001
56,0.44085997343063354,0.559657871723175,0.9,0.72,0.001
57,0.4487491548061371,0.5533095002174377,0.87,0.73,0.001
58,0.4421190023422241,0.5402953624725342,0.88,0.76,0.001
59,0.4373359680175781,0.5346407890319824,0.9,0.77,0.001
60,0.44252318143844604,0.5383288860321045,0.86,0.75,0.001
61,0.4349043369293213,0.5436737537384033,0.89,0.77,0.001
62,0.43598175048828125,0.5438686609268188,0.89,0.74,0.001
63,0.4364835321903229,0.5366910696029663,0.89,0.78,0.001
64,0.4304264485836029,0.5295823216438293,0.9,0.77,0.001
65,0.4329697787761688,0.5297603011131287,0.89,0.77,0.001
66,0.43109455704689026,0.5341019034385681,0.89,0.78,0.001
67,0.42715713381767273,0.5368973016738892,0.9,0.76,0.001
68,0.42904213070869446,0.5317661762237549,0.9,0.77,0.001
69,0.42467057704925537,0.5247005224227905,0.9,0.77,0.001
70,0.4249056279659271,0.5236446261405945,0.9,0.78,0.001
71,0.4244667887687683,0.5285962224006653,0.9,0.76,0.001
72,0.4213257133960724,0.533912181854248,0.9,0.76,0.001
73,0.42198193073272705,0.5327711701393127,0.9,0.77,0.001
74,0.4203953146934509,0.526300311088562,0.9,0.78,0.001
75,0.4187145531177521,0.5231632590293884,0.9,0.78,0.001
76,0.41974273324012756,0.5286226272583008,0.91,0.77,0.001
77,0.41711878776550293,0.5338414907455444,0.9,0.74,0.001
78,0.4180193245410919,0.5321255326271057,0.9,0.76,0.001
79,0.4164726138114929,0.5257021188735962,0.9,0.78,0.001
80,0.4165102243423462,0.5277603268623352,0.91,0.78,0.001
81,0.4151276648044586,0.533433735370636,0.91,0.75,0.001
82,0.4153241217136383,0.5319769978523254,0.9,0.75,0.001
83,0.4139813482761383,0.5248802900314331,0.9,0.78,0.001
84,0.41425323486328125,0.5291750431060791,0.9,0.77,0.001
85,0.41218075156211853,0.5314269065856934,0.91,0.75,0.001
86,0.41243430972099304,0.5266861915588379,0.9,0.78,0.001
87,0.41082245111465454,0.5238921642303467,0.91,0.78,0.001
88,0.41072481870651245,0.5284877419471741,0.91,0.77,0.001
89,0.4103306531906128,0.5259713530540466,0.9,0.78,0.001
90,0.4089711308479309,0.5200750827789307,0.91,0.78,0.001
91,0.40983524918556213,0.5263250470161438,0.91,0.77,0.001
92,0.4090884327888489,0.524563729763031,0.9,0.78,0.001
93,0.407571405172348,0.516878068447113,0.91,0.79,0.001
94,0.40952134132385254,0.5263981819152832,0.91,0.76,0.001
95,0.4095533788204193,0.5166365504264832,0.9,0.78,0.001
96,0.4245243966579437,0.5158649682998657,0.89,0.79,0.001
97,0.41602879762649536,0.5515293478965759,0.89,0.75,0.001
98,0.4213498830795288,0.5241594910621643,0.89,0.78,0.001
99,0.41273918747901917,0.5247529149055481,0.9,0.77,0.001
100,0.4157715141773224,0.5322982668876648,0.9,0.76,0.001
101,0.4096378982067108,0.5419532656669617,0.9,0.76,0.001
102,0.4155905246734619,0.5182124972343445,0.89,0.78,0.001
103,0.4102581739425659,0.5229122638702393,0.9,0.78,0.001
104,0.4050021767616272,0.5286932587623596,0.91,0.76,0.001
105,0.4115246534347534,0.5198197364807129,0.89,0.79,0.001
106,0.40672165155410767,0.5154235363006592,0.9,0.78,0.001
107,0.4118506908416748,0.5209652781486511,0.89,0.78,0.001
108,0.4043999910354614,0.5271578431129456,0.91,0.76,0.001
109,0.4100475609302521,0.525621235370636,0.91,0.76,0.001
110,0.4037562608718872,0.518568754196167,0.91,0.79,0.001
111,0.40442925691604614,0.5167189836502075,0.91,0.78,0.001
112,0.4064375162124634,0.5225401520729065,0.91,0.77,0.001
113,0.4030332863330841,0.5265308618545532,0.91,0.76,0.001
114,0.4051889181137085,0.5252577066421509,0.91,0.76,0.001
115,0.40500545501708984,0.5221757888793945,0.91,0.77,0.001
116,0.4027816355228424,0.5192446708679199,0.91,0.78,0.001
117,0.4035159945487976,0.5170737504959106,0.91,0.79,0.001
118,0.4033302664756775,0.5184203386306763,0.91,0.79,0.001
119,0.40195536613464355,0.5236239433288574,0.91,0.76,0.001
120,0.40211376547813416,0.5242284536361694,0.91,0.76,0.001
121,0.4026317894458771,0.5205536484718323,0.91,0.78,0.001
122,0.40147900581359863,0.5150126814842224,0.91,0.8,0.001
123,0.40075206756591797,0.5131529569625854,0.91,0.8,0.001
124,0.4011707603931427,0.5122421383857727,0.91,0.8,0.001
125,0.4007110297679901,0.5133494138717651,0.91,0.8,0.001
126,0.4000861346721649,0.5166037082672119,0.91,0.79,0.001
127,0.40012481808662415,0.5184371471405029,0.91,0.79,0.001
128,0.4002437889575958,0.5171535015106201,0.91,0.79,0.001
129,0.3998211920261383,0.5137904286384583,0.91,0.8,0.001
130,0.39937371015548706,0.5113642811775208,0.91,0.8,0.001
131,0.39935600757598877,0.5112805962562561,0.91,0.81,0.001
132,0.39945003390312195,0.5121784806251526,0.91,0.81,0.001
133,0.3991559147834778,0.5133870840072632,0.91,0.79,0.001
134,0.39889252185821533,0.5149190425872803,0.91,0.79,0.001
135,0.398934543132782,0.5157753825187683,0.91,0.79,0.001
136,0.39894211292266846,0.5152904987335205,0.91,0.79,0.001
137,0.39876312017440796,0.5135754942893982,0.91,0.8,0.001
138,0.39855456352233887,0.51145339012146,0.91,0.81,0.001
139,0.3984760046005249,0.5100833773612976,0.91,0.81,0.001
140,0.39849212765693665,0.5099543929100037,0.91,0.81,0.001
141,0.3983500301837921,0.5107625722885132,0.91,0.81,0.001
142,0.3981592655181885,0.5117024183273315,0.91,0.8,0.001
143,0.3981051743030548,0.511892557144165,0.91,0.8,0.001
144,0.3980734348297119,0.5111042261123657,0.91,0.8,0.001
145,0.39795058965682983,0.5098156929016113,0.91,0.81,0.001
146,0.39779481291770935,0.5087918639183044,0.91,0.81,0.001
147,0.3977065980434418,0.508358895778656,0.91,0.81,0.001
148,0.3976627290248871,0.5084483027458191,0.91,0.81,0.001
149,0.397510290145874,0.509003221988678,0.91,0.81,0.001
150,0.3973786234855652,0.509701132774353,0.91,0.81,0.001
151,0.39728882908821106,0.5099965929985046,0.91,0.8,0.001
152,0.39717015624046326,0.5098226070404053,0.91,0.8,0.001
153,0.3970121145248413,0.5093396902084351,0.91,0.81,0.001
154,0.3968527317047119,0.508972704410553,0.91,0.81,0.001
155,0.396714448928833,0.5090974569320679,0.91,0.81,0.001
156,0.39654991030693054,0.5098376274108887,0.91,0.81,0.001
157,0.3963322043418884,0.5107800364494324,0.91,0.8,0.001
158,0.3961262106895447,0.511289119720459,0.91,0.8,0.001
159,0.3959081768989563,0.5112003684043884,0.91,0.8,0.001
160,0.3956415057182312,0.5107337832450867,0.91,0.8,0.001
161,0.3953510522842407,0.5102760195732117,0.91,0.8,0.001
162,0.39506375789642334,0.5102294683456421,0.92,0.8,0.001
163,0.3947523236274719,0.5108234882354736,0.92,0.8,0.001
164,0.3944062888622284,0.5112817883491516,0.92,0.8,0.001
165,0.39407363533973694,0.5114562511444092,0.92,0.8,0.001
166,0.3937441110610962,0.5108312368392944,0.92,0.8,0.001
167,0.39344170689582825,0.5104959011077881,0.92,0.79,0.001
168,0.3933837413787842,0.5135409235954285,0.92,0.8,0.001
169,0.3967098593711853,0.5117805600166321,0.91,0.79,0.001
170,0.39699703454971313,0.5068069696426392,0.91,0.8,0.001
171,0.4391676187515259,0.5035325884819031,0.87,0.81,0.001
172,0.43527209758758545,0.516660749912262,0.87,0.78,0.001
173,0.4055803418159485,0.5141639709472656,0.92,0.79,0.001
174,0.4090218245983124,0.5126264095306396,0.91,0.79,0.001
175,0.44989678263664246,0.5134019255638123,0.85,0.79,0.001
176,0.4299556314945221,0.5208905935287476,0.88,0.78,0.001
177,0.4398367702960968,0.5788666009902954,0.88,0.71,0.001
178,0.4695965051651001,0.5040473341941833,0.85,0.8,0.001
179,0.4111841320991516,0.5387580394744873,0.9,0.77,0.001
180,0.4963417947292328,0.5456173419952393,0.8,0.76,0.001
181,0.5175017714500427,0.5612970590591431,0.78,0.75,0.001
182,0.5289197564125061,0.5311959981918335,0.76,0.78,0.001
183,0.4994102716445923,0.49717116355895996,0.79,0.81,0.001
184,0.42899906635284424,0.5171482563018799,0.88,0.79,0.001
185,0.44183117151260376,0.5921638011932373,0.87,0.7,0.001
186,0.4804171621799469,0.5777969360351562,0.84,0.72,0.001
187,0.45993101596832275,0.5667312741279602,0.84,0.74,0.001
188,0.4525228440761566,0.5922441482543945,0.84,0.72,0.001
189,0.4813602566719055,0.5948899984359741,0.82,0.71,0.001
190,0.47238513827323914,0.5635864734649658,0.83,0.73,0.001
191,0.45693615078926086,0.5405091047286987,0.84,0.76,0.001
192,0.44483813643455505,0.5327924489974976,0.86,0.77,0.001
193,0.4442285895347595,0.5114509463310242,0.85,0.79,0.001
194,0.42832720279693604,0.5010687708854675,0.88,0.81,0.001
195,0.4260423183441162,0.5036061406135559,0.88,0.81,0.001
196,0.4362982511520386,0.5053644776344299,0.88,0.8,0.001
197,0.44066983461380005,0.5030856132507324,0.87,0.8,0.001
198,0.43169963359832764,0.49708977341651917,0.87,0.81,0.001
199,0.4258135259151459,0.5030509829521179,0.88,0.81,0.001
200,0.43050751090049744,0.5069749355316162,0.87,0.81,0.001
201,0.42587241530418396,0.5142108201980591,0.88,0.81,0.001
202,0.4169885516166687,0.5208852291107178,0.89,0.79,0.001
203,0.4173620343208313,0.525784432888031,0.89,0.78,0.001
204,0.4207191467285156,0.5229077935218811,0.89,0.78,0.001
205,0.41624605655670166,0.5107725262641907,0.89,0.8,0.001
206,0.4106573462486267,0.5014640092849731,0.9,0.82,0.001
207,0.4062311053276062,0.4992188513278961,0.9,0.81,0.001
208,0.39970386028289795,0.5019657611846924,0.92,0.8,0.001
209,0.39894530177116394,0.5042833089828491,0.93,0.8,0.001
210,0.3979083299636841,0.5056102871894836,0.93,0.79,0.001
211,0.39693939685821533,0.5087717175483704,0.92,0.8,0.001
212,0.396577924489975,0.5193474292755127,0.92,0.78,0.001
213,0.3991657495498657,0.5180827379226685,0.92,0.78,0.001
214,0.3967290222644806,0.5143366456031799,0.92,0.78,0.001
215,0.39657479524612427,0.5120038986206055,0.93,0.79,0.001
216,0.39758533239364624,0.5061711668968201,0.93,0.79,0.001
217,0.3957498073577881,0.5069361329078674,0.93,0.8,0.001
218,0.394877165555954,0.5098760724067688,0.92,0.8,0.001
219,0.394563764333725,0.5107302069664001,0.92,0.79,0.001
220,0.3941201865673065,0.5075427293777466,0.93,0.79,0.001
221,0.39341938495635986,0.5018743872642517,0.93,0.79,0.001
222,0.39290323853492737,0.49800604581832886,0.93,0.81,0.001
223,0.3921571969985962,0.4970411956310272,0.93,0.81,0.001
224,0.3917587697505951,0.49639391899108887,0.92,0.81,0.001
225,0.39138931035995483,0.4950443208217621,0.92,0.82,0.001
226,0.3912183344364166,0.4941597878932953,0.92,0.81,0.001
227,0.3913082480430603,0.4943895637989044,0.92,0.81,0.001
228,0.3906930088996887,0.4960520267486572,0.92,0.81,0.001
229,0.39023154973983765,0.4974841773509979,0.92,0.81,0.001
230,0.3902556598186493,0.4972820580005646,0.92,0.81,0.001
231,0.38997817039489746,0.49683108925819397,0.93,0.81,0.001
232,0.3897565007209778,0.49724212288856506,0.93,0.81,0.001
233,0.3896758258342743,0.4974423944950104,0.93,0.81,0.001
234,0.38940393924713135,0.49758800864219666,0.93,0.81,0.001
235,0.3893652856349945,0.4979652762413025,0.93,0.81,0.001
236,0.38918015360832214,0.4984370172023773,0.93,0.81,0.001
237,0.3888658881187439,0.49929574131965637,0.93,0.8,0.001
238,0.3887600600719452,0.5008792281150818,0.93,0.8,0.001
239,0.38847681879997253,0.5021587610244751,0.93,0.8,0.001
240,0.38816940784454346,0.5025174617767334,0.93,0.81,0.001
241,0.3880751132965088,0.5027598738670349,0.93,0.81,0.001
242,0.38779187202453613,0.503195583820343,0.93,0.8,0.001
243,0.3875262141227722,0.5035319924354553,0.93,0.8,0.001
244,0.3872930407524109,0.5034590363502502,0.93,0.8,0.001
245,0.3870379328727722,0.5033493638038635,0.93,0.81,0.001
246,0.3869899809360504,0.5045012831687927,0.92,0.8,0.001
247,0.38704100251197815,0.5037508606910706,0.93,0.81,0.001
248,0.38647639751434326,0.5031682848930359,0.92,0.81,0.001
249,0.38716089725494385,0.4964204430580139,0.93,0.81,0.001
250,0.4047474265098572,0.5003553628921509,0.91,0.81,0.001
251,0.3985317647457123,0.5186724662780762,0.91,0.78,0.001
252,0.38542553782463074,0.5252650380134583,0.94,0.76,0.001
253,0.3964458405971527,0.4851510524749756,0.91,0.83,0.001
254,0.389846533536911,0.4914001226425171,0.93,0.82,0.001
255,0.40696772933006287,0.4924076199531555,0.91,0.82,0.001
256,0.41320598125457764,0.4858821928501129,0.91,0.83,0.001
257,0.40075984597206116,0.504117488861084,0.92,0.79,0.001
258,0.4001549184322357,0.5128365159034729,0.92,0.79,0.001
259,0.40677639842033386,0.5187402367591858,0.91,0.79,0.001
260,0.41367533802986145,0.517886757850647,0.9,0.78,0.001
261,0.4084790050983429,0.5178374648094177,0.91,0.77,0.001
262,0.4009399712085724,0.5033639669418335,0.92,0.8,0.001
263,0.3965567350387573,0.4850946366786957,0.92,0.83,0.001
264,0.3981451094150543,0.4967743754386902,0.92,0.8,0.001
265,0.4011819362640381,0.4934288263320923,0.92,0.81,0.001
266,0.4002823531627655,0.4876389801502228,0.92,0.83,0.001
267,0.3983038663864136,0.4868359863758087,0.92,0.82,0.001
268,0.40060099959373474,0.48445990681648254,0.91,0.83,0.001
269,0.40195637941360474,0.48200511932373047,0.91,0.83,0.001
270,0.3960115909576416,0.4988724887371063,0.91,0.8,0.001
271,0.3977169096469879,0.4986885190010071,0.92,0.8,0.001
272,0.3938472270965576,0.48390474915504456,0.93,0.84,0.001
273,0.39440906047821045,0.4890671968460083,0.92,0.82,0.001
274,0.39711764454841614,0.4846266806125641,0.92,0.83,0.001
275,0.3918702006340027,0.48771029710769653,0.92,0.82,0.001
276,0.38834330439567566,0.49321097135543823,0.93,0.82,0.001
277,0.3901323974132538,0.49277618527412415,0.93,0.82,0.001
278,0.3906392753124237,0.4909313917160034,0.93,0.82,0.001
279,0.388010174036026,0.49529018998146057,0.93,0.82,0.001
280,0.3891112804412842,0.49861106276512146,0.93,0.82,0.001
281,0.3906196653842926,0.4966259300708771,0.93,0.81,0.001
282,0.3875919282436371,0.4958982467651367,0.93,0.81,0.001
283,0.3885754346847534,0.4975096583366394,0.93,0.81,0.001
284,0.38940373063087463,0.49671000242233276,0.93,0.81,0.001
285,0.3878330886363983,0.4968034029006958,0.93,0.82,0.001
286,0.3872794210910797,0.4989362061023712,0.93,0.81,0.001
287,0.38795506954193115,0.49733996391296387,0.93,0.82,0.001
288,0.3871298134326935,0.4957539737224579,0.93,0.81,0.001
289,0.38617023825645447,0.49335259199142456,0.93,0.81,0.001
290,0.38600781559944153,0.4911191463470459,0.93,0.81,0.001
291,0.3862133324146271,0.4905671179294586,0.93,0.82,0.001
292,0.3860247731208801,0.49078479409217834,0.93,0.82,0.001
293,0.3856210708618164,0.49060168862342834,0.93,0.82,0.001
294,0.38553643226623535,0.49041083455085754,0.93,0.82,0.001
295,0.38551750779151917,0.4900897145271301,0.93,0.82,0.001
296,0.3851616680622101,0.48900118470191956,0.93,0.82,0.001
297,0.3847425878047943,0.4867298901081085,0.93,0.82,0.001
298,0.38455796241760254,0.4854001998901367,0.93,0.83,0.001
299,0.3844628632068634,0.48541128635406494,0.93,0.82,0.001
300,0.3842172622680664,0.48601722717285156,0.93,0.82,0.001
301,0.38391736149787903,0.4868117868900299,0.93,0.82,0.001
302,0.3837446868419647,0.48732367157936096,0.93,0.82,0.001
303,0.38362500071525574,0.48730313777923584,0.93,0.82,0.001
304,0.38342171907424927,0.48709097504615784,0.93,0.82,0.001
305,0.3831423819065094,0.4870528280735016,0.93,0.82,0.001
306,0.38289234042167664,0.48712122440338135,0.93,0.82,0.001
307,0.38270142674446106,0.4870969355106354,0.93,0.82,0.001
308,0.3824840784072876,0.4868989586830139,0.93,0.82,0.001
309,0.3821958303451538,0.48665717244148254,0.93,0.82,0.001
310,0.38190150260925293,0.486617773771286,0.93,0.82,0.001
311,0.38163837790489197,0.4868466556072235,0.93,0.82,0.001
312,0.3813539445400238,0.48713549971580505,0.93,0.82,0.001
313,0.38100022077560425,0.487367182970047,0.93,0.83,0.001
314,0.3806074559688568,0.48781123757362366,0.93,0.82,0.001
315,0.3802257776260376,0.48879340291023254,0.93,0.82,0.001
316,0.3798166513442993,0.489883691072464,0.93,0.82,0.001
317,0.37932080030441284,0.4899771213531494,0.93,0.82,0.001
318,0.3787897825241089,0.489322304725647,0.93,0.82,0.001
319,0.3782479166984558,0.4886019229888916,0.93,0.83,0.001
320,0.37762191891670227,0.4881592094898224,0.94,0.83,0.001
321,0.3769488036632538,0.4878348410129547,0.94,0.83,0.001
322,0.37629395723342896,0.48705604672431946,0.94,0.83,0.001
323,0.3755686581134796,0.48599594831466675,0.94,0.83,0.001
324,0.37486666440963745,0.4855165183544159,0.95,0.83,0.001
325,0.37414225935935974,0.48572680354118347,0.95,0.83,0.001
326,0.3734414577484131,0.485538512468338,0.95,0.83,0.001
327,0.3727807104587555,0.4849720299243927,0.95,0.83,0.001
328,0.37216681241989136,0.48586517572402954,0.95,0.82,0.001
329,0.3716024160385132,0.4882460832595825,0.95,0.82,0.001
330,0.3711206316947937,0.4888962507247925,0.95,0.82,0.001
331,0.3707085847854614,0.4873824715614319,0.95,0.82,0.001
332,0.37037184834480286,0.48678362369537354,0.95,0.82,0.001
333,0.37004467844963074,0.4865504205226898,0.95,0.82,0.001
334,0.3697873055934906,0.48481789231300354,0.95,0.82,0.001
335,0.36953380703926086,0.48319846391677856,0.95,0.82,0.001
336,0.3693384528160095,0.48329266905784607,0.95,0.82,0.001
337,0.3691146969795227,0.48372527956962585,0.95,0.82,0.001
338,0.36893540620803833,0.48323169350624084,0.95,0.82,0.001
339,0.36872854828834534,0.48364177346229553,0.95,0.82,0.001
340,0.36854058504104614,0.4849644601345062,0.95,0.82,0.001
341,0.3683595657348633,0.4850500524044037,0.95,0.82,0.001
342,0.3681665062904358,0.48479163646698,0.95,0.82,0.001
343,0.3679971694946289,0.4851634204387665,0.95,0.82,0.001
344,0.3678112030029297,0.48464274406433105,0.95,0.82,0.001
345,0.36763495206832886,0.4834737479686737,0.95,0.83,0.001
346,0.3674668073654175,0.48334580659866333,0.95,0.83,0.001
347,0.367288738489151,0.4831586480140686,0.95,0.83,0.001
348,0.36712759733200073,0.4823673367500305,0.95,0.83,0.001
349,0.36696702241897583,0.4822946786880493,0.95,0.83,0.001
350,0.3668118417263031,0.48236367106437683,0.95,0.83,0.001
351,0.36667725443840027,0.4819459617137909,0.95,0.83,0.001
352,0.36654919385910034,0.4821300804615021,0.95,0.83,0.001
353,0.36643001437187195,0.48244744539260864,0.95,0.83,0.001
354,0.36632540822029114,0.48236265778541565,0.95,0.83,0.001
355,0.3662239909172058,0.48349350690841675,0.95,0.83,0.001
356,0.3661203384399414,0.4829167425632477,0.95,0.83,0.001
357,0.36601170897483826,0.4835725426673889,0.95,0.83,0.001
358,0.3659026324748993,0.4828334450721741,0.95,0.83,0.001
359,0.36579909920692444,0.4824337363243103,0.95,0.83,0.001
360,0.36570513248443604,0.48265984654426575,0.95,0.84,0.001
361,0.3656187355518341,0.4818606972694397,0.95,0.84,0.001
362,0.365536093711853,0.4829622507095337,0.95,0.84,0.001
363,0.3654549717903137,0.48198676109313965,0.95,0.84,0.001
364,0.36537569761276245,0.4841509759426117,0.95,0.83,0.001
365,0.3653181195259094,0.4824981689453125,0.95,0.84,0.001
366,0.36527523398399353,0.4855772852897644,0.95,0.83,0.001
367,0.3652554452419281,0.4849155843257904,0.95,0.83,0.001
368,0.36530518531799316,0.4808789789676666,0.95,0.83,0.001
369,0.36595961451530457,0.4848196506500244,0.95,0.83,0.001
370,0.3913497030735016,1.0453028678894043,0.91,0.26,0.001
371,1.043647289276123,1.0641227960586548,0.27,0.23,0.001
372,1.0360138416290283,0.8965103626251221,0.26,0.32,0.001
373,0.8539323210716248,0.5662459135055542,0.36,0.74,0.001
374,0.511928141117096,0.568534791469574,0.8,0.74,0.001
375,0.5131015181541443,0.9950626492500305,0.8,0.26,0.001
376,1.0143797397613525,0.9260436296463013,0.25,0.29,0.001
377,0.9397491216659546,0.5779101848602295,0.28,0.73,0.001
378,0.5216924548149109,0.5496205687522888,0.78,0.75,0.001
379,0.5176976919174194,0.5885500311851501,0.77,0.72,0.001
380,0.5485129356384277,0.7523929476737976,0.76,0.56,0.001
381,0.6485795378684998,0.7528884410858154,0.62,0.54,0.001
382,0.6413496136665344,0.6343220472335815,0.66,0.64,0.001
383,0.570428192615509,0.5655924677848816,0.73,0.74,0.001
384,0.516649603843689,0.550626814365387,0.79,0.74,0.001
385,0.5040779113769531,0.5810903310775757,0.81,0.71,0.001
386,0.514054536819458,0.6132621169090271,0.79,0.68,0.001
387,0.5277971029281616,0.6392425298690796,0.76,0.64,0.001
388,0.5330522656440735,0.6384885907173157,0.77,0.67,0.001
389,0.542803943157196,0.6385391354560852,0.74,0.66,0.001
390,0.5447168946266174,0.6386629343032837,0.73,0.67,0.001
391,0.5370869040489197,0.6375117897987366,0.75,0.63,0.001
392,0.5256916284561157,0.6119797825813293,0.78,0.68,0.001
393,0.5178134441375732,0.5825439691543579,0.78,0.74,0.001
394,0.5041940212249756,0.5502093434333801,0.81,0.75,0.001
395,0.4867774248123169,0.5463038682937622,0.83,0.76,0.001
396,0.49081841111183167,0.5480602979660034,0.82,0.76,0.001
397,0.5006124377250671,0.5494779348373413,0.79,0.75,0.001
398,0.5076202154159546,0.5477892756462097,0.8,0.75,0.001
399,0.506722629070282,0.5437558889389038,0.79,0.76,0.001
400,0.49681374430656433,0.5397762656211853,0.79,0.78,0.001
401,0.4831344187259674,0.5429127216339111,0.83,0.75,0.001
402,0.4738229811191559,0.5571649670600891,0.84,0.73,0.001
403,0.4733494520187378,0.5718815326690674,0.83,0.71,0.001
404,0.4735688269138336,0.5840109586715698,0.83,0.7,0.001
405,0.47547271847724915,0.573481023311615,0.81,0.71,0.001
406,0.46473246812820435,0.5535011887550354,0.83,0.76,0.001
407,0.45692744851112366,0.543194055557251,0.84,0.74,0.001
408,0.45376265048980713,0.5356807112693787,0.85,0.75,0.001
409,0.44790545105934143,0.5278657078742981,0.86,0.77,0.001
410,0.4430581331253052,0.5229794383049011,0.87,0.76,0.001
411,0.43525364995002747,0.5229747295379639,0.88,0.77,0.001
412,0.42668065428733826,0.5274055004119873,0.9,0.79,0.001
413,0.42656025290489197,0.5283130407333374,0.87,0.77,0.001
414,0.42436549067497253,0.5236226916313171,0.89,0.76,0.001
415,0.4265132546424866,0.5257977843284607,0.89,0.79,0.001
416,0.42086002230644226,0.5237817168235779,0.89,0.77,0.001
417,0.4203890860080719,0.5016488432884216,0.88,0.8,0.001
418,0.41691136360168457,0.5031272768974304,0.9,0.79,0.001
419,0.4351796805858612,0.526063859462738,0.88,0.78,0.001
420,0.42328837513923645,0.5908191800117493,0.88,0.72,0.001
421,0.46722808480262756,0.48820123076438904,0.84,0.83,0.001
422,0.4434724450111389,0.5810884833335876,0.87,0.72,0.001
423,0.5616756081581116,0.5457848310470581,0.73,0.76,0.001
424,0.5237272381782532,0.48676997423171997,0.78,0.82,0.001
425,0.4307207763195038,0.5196647047996521,0.88,0.79,0.001
426,0.4276938736438751,0.6136125922203064,0.88,0.68,0.001
427,0.4734549820423126,0.5258241295814514,0.85,0.79,0.001
428,0.43108370900154114,0.4994864761829376,0.87,0.81,0.001
429,0.4294763505458832,0.49312859773635864,0.88,0.78,0.001
430,0.4544964134693146,0.5047662854194641,0.85,0.79,0.001
431,0.46721580624580383,0.506664514541626,0.83,0.78,0.001
432,0.4505970776081085,0.5092848539352417,0.84,0.79,0.001
433,0.43318381905555725,0.5173720717430115,0.87,0.76,0.001
434,0.4279410243034363,0.539391040802002,0.89,0.76,0.001
435,0.4357697367668152,0.554638683795929,0.87,0.75,0.001
436,0.44303399324417114,0.5598404407501221,0.87,0.75,0.001
437,0.44484198093414307,0.551245927810669,0.86,0.76,0.001
438,0.4402715563774109,0.5372800827026367,0.87,0.75,0.001
439,0.4329260587692261,0.5280168056488037,0.88,0.76,0.001
440,0.4313869774341583,0.5275692939758301,0.88,0.75,0.001
441,0.43706950545310974,0.526801347732544,0.86,0.76,0.001
442,0.4349786639213562,0.5261632800102234,0.88,0.77,0.001
443,0.4270739257335663,0.5350748300552368,0.9,0.75,0.001
444,0.4270499050617218,0.5415349006652832,0.89,0.77,0.001
445,0.43010982871055603,0.5331974625587463,0.88,0.78,0.001
446,0.4295938014984131,0.5265368819236755,0.88,0.77,0.001
447,0.4256029427051544,0.5133457779884338,0.88,0.78,0.001
448,0.42315101623535156,0.5079623460769653,0.89,0.8,0.001
449,0.42473340034484863,0.5055705904960632,0.89,0.8,0.001
450,0.42427700757980347,0.5061779618263245,0.89,0.79,0.001
451,0.4201383590698242,0.518634557723999,0.89,0.79,0.001
452,0.4179912507534027,0.5246217250823975,0.9,0.79,0.001
453,0.4181731939315796,0.5242779850959778,0.9,0.8,0.001
454,0.4191232919692993,0.5152759552001953,0.9,0.79,0.001
455,0.41670653223991394,0.5064948201179504,0.9,0.81,0.001
456,0.41443392634391785,0.5020521879196167,0.91,0.8,0.001
457,0.4162794351577759,0.500270426273346,0.9,0.8,0.001
458,0.41592445969581604,0.5022767186164856,0.9,0.81,0.001
459,0.4126637279987335,0.5061383247375488,0.91,0.8,0.001
460,0.4139659106731415,0.5066766738891602,0.89,0.81,0.001
461,0.4108085334300995,0.5067415833473206,0.9,0.8,0.001
462,0.41202300786972046,0.5094540119171143,0.89,0.8,0.001
463,0.41047486662864685,0.512097954750061,0.9,0.8,0.001
464,0.4141513705253601,0.5012624263763428,0.9,0.82,0.001
465,0.41336292028427124,0.49548763036727905,0.9,0.8,0.001
466,0.41463398933410645,0.49992847442626953,0.9,0.81,0.001
467,0.4070861041545868,0.5034440755844116,0.91,0.8,0.0007937005259840996
468,0.41549795866012573,0.4990934729576111,0.9,0.83,0.0007937005259840996
469,0.4144704341888428,0.4927380681037903,0.9,0.83,0.0007937005259840996
470,0.40707075595855713,0.4830034673213959,0.91,0.81,0.0007937005259840996
471,0.4114496111869812,0.4814905822277069,0.91,0.82,0.0007937005259840996
472,0.411232590675354,0.4927682876586914,0.91,0.82,0.0007937005259840996
473,0.4049629867076874,0.5031987428665161,0.92,0.81,0.0007937005259840996
474,0.41225379705429077,0.4982796907424927,0.89,0.82,0.0007937005259840996
475,0.40449509024620056,0.4831884801387787,0.91,0.85,0.0007937005259840996
476,0.40830105543136597,0.486907035112381,0.91,0.83,0.0007937005259840996
477,0.4056432843208313,0.5019146203994751,0.92,0.8,0.0007937005259840996
478,0.40507471561431885,0.5028877258300781,0.9,0.8,0.0007937005259840996
479,0.4064256548881531,0.4876083731651306,0.9,0.82,0.0007937005259840996
480,0.40305665135383606,0.47569596767425537,0.92,0.83,0.0007937005259840996
481,0.405923455953598,0.483003705739975,0.91,0.83,0.0007937005259840996
482,0.4030449688434601,0.4945405125617981,0.92,0.82,0.0007937005259840996
483,0.40357643365859985,0.4900006353855133,0.92,0.82,0.0007937005259840996
484,0.40129584074020386,0.4801134765148163,0.92,0.84,0.0007937005259840996
485,0.4013669490814209,0.47958987951278687,0.92,0.83,0.0007937005259840996
486,0.4011356830596924,0.4921799600124359,0.92,0.82,0.0007937005259840996
487,0.40060311555862427,0.4953823983669281,0.92,0.81,0.0007937005259840996
488,0.40091660618782043,0.4853036403656006,0.92,0.82,0.0007937005259840996
489,0.399556428194046,0.475719153881073,0.92,0.84,0.0007937005259840996
490,0.40134549140930176,0.5047428607940674,0.92,0.8,0.0007937005259840996
491,0.41548070311546326,0.5145910382270813,0.89,0.8,0.0007937005259840996
492,0.4195353388786316,0.49314624071121216,0.89,0.81,0.0007937005259840996
493,0.41116493940353394,0.4710467457771301,0.9,0.85,0.0007937005259840996
494,0.4099949300289154,0.47746264934539795,0.91,0.82,0.0007937005259840996
495,0.41578876972198486,0.4700605869293213,0.89,0.83,0.0007937005259840996
496,0.4148322641849518,0.4704144299030304,0.89,0.85,0.0007937005259840996
497,0.4087327718734741,0.49188706278800964,0.91,0.82,0.0007937005259840996
498,0.4094665050506592,0.5024499297142029,0.91,0.8,0.0007937005259840996
499,0.41331160068511963,0.4854069948196411,0.89,0.83,0.0007937005259840996
500,0.407846063375473,0.4691721796989441,0.91,0.85,0.0007937005259840996
501,0.40854793787002563,0.468019038438797,0.91,0.83,0.0007937005259840996
502,0.4107639789581299,0.4678347110748291,0.91,0.85,0.0007937005259840996
503,0.40967369079589844,0.47191712260246277,0.91,0.85,0.0007937005259840996
504,0.40717464685440063,0.4866304397583008,0.91,0.83,0.0007937005259840996
505,0.40753355622291565,0.4931862950325012,0.91,0.81,0.0007937005259840996
506,0.4092040956020355,0.4825590252876282,0.91,0.83,0.0007937005259840996
507,0.40672311186790466,0.4710967540740967,0.91,0.84,0.0007937005259840996
508,0.40691033005714417,0.46631038188934326,0.91,0.85,0.0007937005259840996
509,0.40766441822052,0.4664723575115204,0.91,0.85,0.0007937005259840996
510,0.4072389602661133,0.46979036927223206,0.91,0.85,0.0007937005259840996
511,0.40654370188713074,0.4766463041305542,0.91,0.84,0.0007937005259840996
512,0.40611591935157776,0.48186421394348145,0.91,0.83,0.0007937005259840996
513,0.40592285990715027,0.4857059717178345,0.91,0.83,0.0007937005259840996
514,0.4060795307159424,0.48648756742477417,0.91,0.82,0.0007937005259840996
515,0.40604519844055176,0.4840451180934906,0.91,0.83,0.0007937005259840996
516,0.4056527316570282,0.48089802265167236,0.91,0.83,0.0007937005259840996
517,0.40523120760917664,0.47523438930511475,0.91,0.84,0.0007937005259840996
518,0.4042198956012726,0.4659256041049957,0.91,0.84,0.0007937005259840996
519,0.40542441606521606,0.4753116965293884,0.92,0.84,0.0007937005259840996
520,0.4031980037689209,0.4784495234489441,0.91,0.84,0.0007937005259840996
521,0.40342018008232117,0.47433823347091675,0.91,0.84,0.0007937005259840996
522,0.40183407068252563,0.46429243683815,0.91,0.85,0.0007937005259840996
523,0.40370598435401917,0.4864726960659027,0.92,0.83,0.0007937005259840996
524,0.40463024377822876,0.5024219751358032,0.91,0.81,0.0007937005259840996
525,0.4096548557281494,0.48177459836006165,0.91,0.83,0.0007937005259840996
526,0.40124645829200745,0.46497073769569397,0.91,0.85,0.0007937005259840996
527,0.41924527287483215,0.4712661802768707,0.88,0.84,0.0007937005259840996
528,0.4006774127483368,0.4957091212272644,0.92,0.81,0.0007937005259840996
529,0.4059348702430725,0.5308060646057129,0.91,0.78,0.0007937005259840996
530,0.41480299830436707,0.49906808137893677,0.9,0.81,0.0007937005259840996
531,0.4069187641143799,0.4799264073371887,0.91,0.83,0.0007937005259840996
532,0.39924129843711853,0.4685121476650238,0.92,0.82,0.0007937005259840996
533,0.4176318347454071,0.47064921259880066,0.89,0.85,0.0007937005259840996
534,0.40046218037605286,0.49351879954338074,0.92,0.82,0.0007937005259840996
535,0.405517041683197,0.520761251449585,0.91,0.79,0.0007937005259840996
536,0.4145299792289734,0.5087199211120605,0.9,0.81,0.0007937005259840996
537,0.41073864698410034,0.48545220494270325,0.89,0.83,0.0007937005259840996
538,0.4012768566608429,0.4681670665740967,0.91,0.82,0.0007937005259840996
539,0.41231369972229004,0.46860671043395996,0.91,0.84,0.0007937005259840996
540,0.40532025694847107,0.4871065020561218,0.92,0.83,0.0007937005259840996
541,0.4013978838920593,0.4983636140823364,0.91,0.81,0.0007937005259840996
542,0.4068455100059509,0.4958532452583313,0.9,0.82,0.0007937005259840996
543,0.40558162331581116,0.47981131076812744,0.91,0.84,0.0007937005259840996
544,0.39626991748809814,0.4662415385246277,0.92,0.84,0.0007937005259840996
545,0.4045847952365875,0.5952181220054626,0.91,0.67,0.0007937005259840996
546,0.4864850342273712,0.6132446527481079,0.82,0.68,0.0007937005259840996
547,0.4965484142303467,0.5786687135696411,0.8,0.74,0.0007937005259840996
548,0.44435587525367737,0.5088204741477966,0.87,0.81,0.0007937005259840996
549,0.41712233424186707,0.5150265097618103,0.89,0.79,0.0007937005259840996
550,0.4651615023612976,0.5433706641197205,0.84,0.76,0.0007937005259840996
551,0.49313971400260925,0.543440043926239,0.79,0.76,0.0007937005259840996
552,0.4837858974933624,0.5341642498970032,0.82,0.76,0.0007937005259840996
553,0.44807377457618713,0.5432936549186707,0.85,0.76,0.0007937005259840996
554,0.4853605031967163,0.5446668863296509,0.81,0.74,0.0007937005259840996
555,0.4809655249118805,0.5415941476821899,0.82,0.75,0.0007937005259840996
556,0.4394646883010864,0.5585857629776001,0.86,0.75,0.0007937005259840996
557,0.42157700657844543,0.6081635355949402,0.89,0.67,0.0007937005259840996
558,0.45826661586761475,0.6507088541984558,0.87,0.63,0.0007937005259840996
559,0.48627570271492004,0.6170734167098999,0.83,0.65,0.0007937005259840996
560,0.45661038160324097,0.5548311471939087,0.86,0.74,0.0007937005259840996
561,0.41589951515197754,0.5248523950576782,0.9,0.76,0.0007937005259840996
562,0.4222249686717987,0.5151917934417725,0.89,0.79,0.0007937005259840996
563,0.42996054887771606,0.5130724310874939,0.88,0.8,0.0007937005259840996
564,0.4331877827644348,0.5092850923538208,0.88,0.79,0.0007937005259840996
565,0.42138612270355225,0.5031924843788147,0.89,0.81,0.0007937005259840996
566,0.4157163202762604,0.5184683799743652,0.9,0.79,0.0007937005259840996
567,0.4140576124191284,0.5350228548049927,0.9,0.77,0.0007937005259840996
568,0.4191666543483734,0.5389511585235596,0.9,0.77,0.0006299605249474364
569,0.4222172796726227,0.5335796475410461,0.89,0.77,0.0006299605249474364
570,0.4199908971786499,0.5177677869796753,0.89,0.78,0.0006299605249474364
571,0.4150833487510681,0.5040115118026733,0.9,0.8,0.0006299605249474364
572,0.41069042682647705,0.48111534118652344,0.91,0.84,0.0006299605249474364
573,0.41237103939056396,0.4787522554397583,0.9,0.84,0.0006299605249474364
574,0.4110935926437378,0.4807596206665039,0.89,0.83,0.0006299605249474364
575,0.4104616641998291,0.4775201380252838,0.9,0.84,0.0006299605249474364
576,0.4052481949329376,0.4756709039211273,0.91,0.84,0.0006299605249474364
577,0.3983348608016968,0.4819453954696655,0.91,0.83,0.0006299605249474364
578,0.39753833413124084,0.48365360498428345,0.92,0.84,0.0006299605249474364
579,0.3972996473312378,0.4816843867301941,0.92,0.84,0.0006299605249474364
580,0.39749661087989807,0.4776570200920105,0.92,0.85,0.0006299605249474364
581,0.3962041735649109,0.4695463478565216,0.92,0.85,0.0006299605249474364
582,0.39524033665657043,0.46381282806396484,0.93,0.86,0.0006299605249474364
583,0.3937987983226776,0.46784287691116333,0.93,0.85,0.0006299605249474364
584,0.39029282331466675,0.47589752078056335,0.93,0.83,0.0006299605249474364
585,0.39638423919677734,0.481567919254303,0.92,0.83,0.0006299605249474364
586,0.39684104919433594,0.4849024713039398,0.92,0.83,0.0006299605249474364
587,0.39675232768058777,0.4867781400680542,0.92,0.83,0.0006299605249474364
588,0.39664095640182495,0.4874843657016754,0.92,0.83,0.0006299605249474364
589,0.3965230882167816,0.4870900809764862,0.92,0.83,0.0006299605249474364
590,0.39636215567588806,0.4860840141773224,0.92,0.83,0.0006299605249474364
591,0.39620262384414673,0.48507896065711975,0.92,0.83,0.0006299605249474364
592,0.39607253670692444,0.48459330201148987,0.92,0.83,0.0006299605249474364
593,0.3959490954875946,0.4846886694431305,0.92,0.83,0.0006299605249474364
594,0.39580845832824707,0.48523303866386414,0.92,0.83,0.0006299605249474364
595,0.39566248655319214,0.48590725660324097,0.92,0.83,0.0006299605249474364
596,0.3955320417881012,0.4863169193267822,0.92,0.83,0.0006299605249474364
597,0.39541056752204895,0.4862455129623413,0.92,0.83,0.0006299605249474364
598,0.3952828645706177,0.4857218563556671,0.92,0.83,0.0006299605249474364
599,0.3951464593410492,0.4849715828895569,0.92,0.83,0.0006299605249474364
600,0.3950146734714508,0.4842633903026581,0.92,0.83,0.0006299605249474364
601,0.39489054679870605,0.4838537275791168,0.92,0.83,0.0006299605249474364
602,0.39476704597473145,0.48382568359375,0.92,0.83,0.0006299605249474364
603,0.39463871717453003,0.4840613901615143,0.92,0.83,0.0006299605249474364
604,0.3945077657699585,0.48444393277168274,0.92,0.83,0.0006299605249474364
605,0.3943822383880615,0.48469066619873047,0.92,0.83,0.0006299605249474364
606,0.394260436296463,0.4846687316894531,0.92,0.83,0.0006299605249474364
607,0.39413729310035706,0.4843454360961914,0.92,0.83,0.0006299605249474364
608,0.39401113986968994,0.4837964177131653,0.92,0.83,0.0006299605249474364
609,0.3938860297203064,0.4832332730293274,0.92,0.83,0.0006299605249474364
610,0.393763929605484,0.4828043282032013,0.92,0.83,0.0006299605249474364
611,0.39364388585090637,0.4826144874095917,0.92,0.83,0.0006299605249474364
612,0.3935239315032959,0.48262953758239746,0.92,0.83,0.0006299605249474364
613,0.3934020698070526,0.4828183650970459,0.92,0.83,0.0006299605249474364
614,0.39328059554100037,0.48301929235458374,0.92,0.83,0.0006299605249474364
615,0.39316242933273315,0.4831242859363556,0.92,0.83,0.0006299605249474364
616,0.3930452764034271,0.4830385446548462,0.92,0.83,0.0006299605249474364
617,0.39292657375335693,0.48275965452194214,0.92,0.83,0.0006299605249474364
618,0.3928082287311554,0.48239031434059143,0.92,0.83,0.0006299605249474364
619,0.3926895260810852,0.4820055365562439,0.92,0.83,0.0006299605249474364
620,0.39257198572158813,0.48177874088287354,0.92,0.83,0.0006299605249474364
621,0.3924555480480194,0.4816698133945465,0.92,0.83,0.0006299605249474364
622,0.39233702421188354,0.4817522168159485,0.92,0.83,0.0006299605249474364
623,0.3922187387943268,0.4819391667842865,0.92,0.83,0.0006299605249474364
624,0.3920990824699402,0.482163667678833,0.92,0.83,0.0006299605249474364
625,0.39197975397109985,0.4822981655597687,0.92,0.83,0.0006299605249474364
626,0.3918604552745819,0.4823140799999237,0.92,0.83,0.0006299605249474364
627,0.3917394280433655,0.4822337329387665,0.92,0.83,0.0006299605249474364
628,0.3916171193122864,0.4820452630519867,0.92,0.83,0.0006299605249474364
629,0.3914940357208252,0.4819530248641968,0.92,0.83,0.0006299605249474364
630,0.3913687765598297,0.48199912905693054,0.92,0.83,0.0006299605249474364
631,0.3912433683872223,0.4822271466255188,0.92,0.83,0.0006299605249474364
632,0.3911154270172119,0.4827072024345398,0.92,0.83,0.0006299605249474364
633,0.390986829996109,0.48338136076927185,0.92,0.82,0.0006299605249474364
634,0.39085525274276733,0.4842982590198517,0.92,0.82,0.0006299605249474364
635,0.39072251319885254,0.48516708612442017,0.92,0.81,0.0006299605249474364
636,0.3905876874923706,0.4860842823982239,0.92,0.81,0.0006299605249474364
637,0.3904511332511902,0.4868614971637726,0.92,0.81,0.0006299605249474364
638,0.3903123736381531,0.487599641084671,0.92,0.81,0.0006299605249474364
639,0.39017254114151,0.4883272051811218,0.92,0.81,0.0006299605249474364
640,0.39002880454063416,0.48901990056037903,0.92,0.81,0.0006299605249474364
641,0.3898848295211792,0.48945102095603943,0.92,0.81,0.0006299605249474364
642,0.38973739743232727,0.4896942973136902,0.92,0.81,0.0006299605249474364
643,0.38958895206451416,0.489787757396698,0.92,0.81,0.0006299605249474364
644,0.3894382417201996,0.48970282077789307,0.92,0.81,0.0006299605249474364
645,0.38928619027137756,0.48946404457092285,0.93,0.81,0.0006299605249474364
646,0.3891325294971466,0.48915278911590576,0.93,0.81,0.0006299605249474364
647,0.38897705078125,0.4888097643852234,0.93,0.82,0.0006299605249474364
648,0.38881930708885193,0.4885598421096802,0.93,0.82,0.0006299605249474364
649,0.3886609375476837,0.4883369505405426,0.93,0.82,0.0006299605249474364
650,0.38850077986717224,0.48812398314476013,0.93,0.82,0.0006299605249474364
651,0.38833943009376526,0.48789218068122864,0.93,0.82,0.0006299605249474364
652,0.38817650079727173,0.48762157559394836,0.93,0.82,0.0006299605249474364
653,0.38801366090774536,0.4872509241104126,0.93,0.82,0.0006299605249474364
654,0.3878483474254608,0.4868687689304352,0.93,0.82,0.0006299605249474364
655,0.38768330216407776,0.4865250885486603,0.93,0.82,0.0006299605249474364
656,0.3875178396701813,0.4862205386161804,0.93,0.83,0.0006299605249474364
657,0.38735103607177734,0.4859500825405121,0.93,0.83,0.0006299605249474364
658,0.38718360662460327,0.48566505312919617,0.93,0.83,0.0006299605249474364
659,0.3870167136192322,0.4853282570838928,0.93,0.83,0.0006299605249474364
660,0.3868483006954193,0.48492076992988586,0.93,0.83,0.0006299605249474364
661,0.38668036460876465,0.48451435565948486,0.93,0.83,0.0006299605249474364
662,0.3865123987197876,0.48413631319999695,0.93,0.83,0.0006299605249474364
663,0.38634493947029114,0.4837634265422821,0.93,0.83,0.0006299605249474364
664,0.3861772119998932,0.4834432303905487,0.93,0.83,0.0006299605249474364
665,0.3860110938549042,0.48321136832237244,0.93,0.83,0.0006299605249474364
666,0.38584426045417786,0.48293861746788025,0.93,0.83,0.0006299605249474364
667,0.38567864894866943,0.4826890230178833,0.93,0.83,0.0006299605249474364
668,0.3855145275592804,0.4824317693710327,0.93,0.83,0.0006299605249474364
669,0.3853488266468048,0.48228299617767334,0.93,0.83,0.0004999999999999997
670,0.3851867914199829,0.48216524720191956,0.93,0.83,0.0004999999999999997
671,0.3850564956665039,0.4820387661457062,0.93,0.83,0.0004999999999999997
672,0.38492897152900696,0.4818958640098572,0.93,0.83,0.0004999999999999997
673,0.384800523519516,0.4817606210708618,0.93,0.83,0.0004999999999999997
674,0.3846726715564728,0.48165497183799744,0.93,0.83,0.0004999999999999997
675,0.3845460116863251,0.4815690517425537,0.93,0.83,0.0004999999999999997
676,0.38441917300224304,0.48149219155311584,0.93,0.83,0.0004999999999999997
677,0.38429272174835205,0.4814119338989258,0.93,0.83,0.0004999999999999997
678,0.3841674029827118,0.4813089370727539,0.93,0.83,0.0004999999999999997
679,0.3840409219264984,0.4812292456626892,0.93,0.83,0.0004999999999999997
680,0.3839167058467865,0.48116588592529297,0.93,0.83,0.0004999999999999997
681,0.38379156589508057,0.48113739490509033,0.93,0.83,0.0004999999999999997
682,0.38366904854774475,0.4810674786567688,0.93,0.83,0.0004999999999999997
683,0.38354435563087463,0.4810100495815277,0.93,0.83,0.0004999999999999997
684,0.38342180848121643,0.4809706509113312,0.93,0.83,0.0004999999999999997
685,0.3832983374595642,0.48094072937965393,0.94,0.83,0.0004999999999999997
686,0.38317760825157166,0.48089706897735596,0.94,0.83,0.0004999999999999997
687,0.3830559253692627,0.48088717460632324,0.94,0.83,0.0004999999999999997
688,0.3829352855682373,0.48086538910865784,0.94,0.83,0.0004999999999999997
689,0.38281604647636414,0.4808827340602875,0.94,0.83,0.0004999999999999997
690,0.3826967477798462,0.480881929397583,0.94,0.83,0.0004999999999999997
691,0.38257887959480286,0.4808611273765564,0.94,0.83,0.0004999999999999997
692,0.38246041536331177,0.4809104800224304,0.94,0.83,0.0004999999999999997
693,0.38234421610832214,0.4809950888156891,0.94,0.83,0.0004999999999999997
694,0.3822283446788788,0.4810754358768463,0.94,0.83,0.0004999999999999997
695,0.38211387395858765,0.4811435639858246,0.94,0.83,0.0004999999999999997
696,0.3819979429244995,0.48127374053001404,0.94,0.83,0.0004999999999999997
697,0.38188591599464417,0.48145756125450134,0.94,0.83,0.0004999999999999997
698,0.38177359104156494,0.4816995859146118,0.94,0.83,0.0004999999999999997
699,0.3816618323326111,0.4820781946182251,0.94,0.83,0.0004999999999999997
700,0.3815499544143677,0.4823841154575348,0.94,0.83,0.0004999999999999997
701,0.38143908977508545,0.4827527105808258,0.94,0.83,0.0004999999999999997
702,0.38132935762405396,0.483246773481369,0.94,0.83,0.0004999999999999997
703,0.38122084736824036,0.48381197452545166,0.94,0.82,0.0004999999999999997
704,0.3811129033565521,0.48445025086402893,0.94,0.82,0.0004999999999999997
705,0.38100627064704895,0.4850829839706421,0.94,0.82,0.0004999999999999997
706,0.380900114774704,0.48566585779190063,0.94,0.82,0.0004999999999999997
707,0.38079535961151123,0.4861769378185272,0.94,0.82,0.0004999999999999997
708,0.3806908130645752,0.48666998744010925,0.94,0.82,0.0004999999999999997
709,0.3805882930755615,0.48712676763534546,0.94,0.82,0.0004999999999999997
710,0.38048553466796875,0.48745742440223694,0.94,0.82,0.0004999999999999997
711,0.3803841769695282,0.48778265714645386,0.94,0.82,0.0004999999999999997
712,0.3802846670150757,0.48799073696136475,0.94,0.82,0.0004999999999999997
713,0.3801855444908142,0.48810166120529175,0.94,0.82,0.0004999999999999997
714,0.38008707761764526,0.48818933963775635,0.94,0.82,0.0004999999999999997
715,0.37999042868614197,0.4882194399833679,0.94,0.82,0.0004999999999999997
716,0.37989571690559387,0.4882340133190155,0.94,0.82,0.0004999999999999997
717,0.37980177998542786,0.4882473647594452,0.94,0.82,0.0004999999999999997
718,0.3797087073326111,0.48823803663253784,0.94,0.82,0.0004999999999999997
719,0.3796175420284271,0.48817986249923706,0.94,0.82,0.0004999999999999997
720,0.37952664494514465,0.48808205127716064,0.94,0.82,0.0004999999999999997
721,0.37943896651268005,0.4879900813102722,0.94,0.82,0.0004999999999999997
722,0.37935152649879456,0.4879460632801056,0.94,0.82,0.0004999999999999997
723,0.37926533818244934,0.48790425062179565,0.94,0.82,0.0004999999999999997
724,0.3791811466217041,0.4878004491329193,0.94,0.82,0.0004999999999999997
725,0.3790980577468872,0.4876677393913269,0.94,0.82,0.0004999999999999997
726,0.3790172338485718,0.48756611347198486,0.94,0.82,0.0004999999999999997
727,0.37893810868263245,0.48748838901519775,0.94,0.82,0.0004999999999999997
728,0.3788592517375946,0.4874606430530548,0.94,0.82,0.0004999999999999997
729,0.37878307700157166,0.48733532428741455,0.94,0.82,0.0004999999999999997
730,0.37870797514915466,0.48715832829475403,0.94,0.82,0.0004999999999999997
731,0.3786346912384033,0.48706504702568054,0.94,0.82,0.0004999999999999997
732,0.37856224179267883,0.4870177209377289,0.94,0.82,0.0004999999999999997
733,0.37849244475364685,0.48694148659706116,0.94,0.82,0.0004999999999999997
734,0.37842386960983276,0.48681163787841797,0.94,0.82,0.0004999999999999997
735,0.37835708260536194,0.4866257607936859,0.94,0.82,0.0004999999999999997
736,0.37829169631004333,0.48653897643089294,0.94,0.82,0.0004999999999999997
737,0.37822726368904114,0.4865080714225769,0.94,0.82,0.0004999999999999997
738,0.37816566228866577,0.4863795340061188,0.94,0.82,0.0004999999999999997
739,0.3781045079231262,0.48618385195732117,0.94,0.82,0.0004999999999999997
740,0.37804552912712097,0.48602294921875,0.94,0.82,0.0004999999999999997
741,0.37798774242401123,0.4859805405139923,0.94,0.82,0.0004999999999999997
742,0.3779323101043701,0.4858916997909546,0.94,0.82,0.0004999999999999997
743,0.37787801027297974,0.48568326234817505,0.94,0.82,0.0004999999999999997
744,0.37782424688339233,0.4854702353477478,0.94,0.82,0.0004999999999999997
745,0.3777730464935303,0.48540186882019043,0.94,0.82,0.0004999999999999997
746,0.37772274017333984,0.4853125512599945,0.94,0.82,0.0004999999999999997
747,0.37767234444618225,0.4851449728012085,0.94,0.82,0.0004999999999999997
748,0.37762385606765747,0.4849080741405487,0.94,0.82,0.0004999999999999997
749,0.377574622631073,0.4848140776157379,0.94,0.82,0.0004999999999999997
750,0.37752610445022583,0.4848378896713257,0.94,0.82,0.0004999999999999997
751,0.37748000025749207,0.4846422076225281,0.94,0.82,0.0004999999999999997
752,0.37743163108825684,0.48443403840065,0.94,0.82,0.0004999999999999997
753,0.3773862421512604,0.48433226346969604,0.94,0.82,0.0004999999999999997
754,0.3773411214351654,0.4843665063381195,0.94,0.82,0.0004999999999999997
755,0.3772963285446167,0.4842270612716675,0.94,0.83,0.0004999999999999997
756,0.37725311517715454,0.48398062586784363,0.94,0.83,0.0004999999999999997
757,0.3772094249725342,0.48388880491256714,0.94,0.83,0.0004999999999999997
758,0.3771674633026123,0.4839097261428833,0.94,0.83,0.0004999999999999997
759,0.3771262466907501,0.4838041663169861,0.94,0.83,0.0004999999999999997
760,0.37708497047424316,0.4836274981498718,0.94,0.83,0.0004999999999999997
761,0.3770449459552765,0.48348158597946167,0.94,0.83,0.0004999999999999997
762,0.377005398273468,0.48344364762306213,0.94,0.83,0.0004999999999999997
763,0.3769663870334625,0.4834537208080292,0.94,0.83,0.0004999999999999997
764,0.3769284188747406,0.4832867681980133,0.94,0.83,0.0004999999999999997
765,0.37689006328582764,0.4831125736236572,0.94,0.83,0.0004999999999999997
766,0.37685200572013855,0.4830988645553589,0.94,0.83,0.0004999999999999997
767,0.3768155574798584,0.483045756816864,0.94,0.83,0.0004999999999999997
768,0.3767792880535126,0.4829428493976593,0.94,0.83,0.0004999999999999997
769,0.3767433166503906,0.4828263521194458,0.94,0.83,0.0004999999999999997
770,0.3767082989215851,0.482754111289978,0.94,0.83,0.00039685026299204955
771,0.3766733407974243,0.4827043414115906,0.94,0.83,0.00039685026299204955
772,0.3766460716724396,0.48262542486190796,0.94,0.83,0.00039685026299204955
773,0.3766189515590668,0.48255637288093567,0.94,0.83,0.00039685026299204955
774,0.3765925168991089,0.48249557614326477,0.94,0.83,0.00039685026299204955
775,0.37656670808792114,0.48243072628974915,0.94,0.83,0.00039685026299204955
776,0.37654027342796326,0.48236244916915894,0.94,0.83,0.00039685026299204955
777,0.3765144646167755,0.48227742314338684,0.94,0.83,0.00039685026299204955
778,0.37648919224739075,0.48218730092048645,0.94,0.83,0.00039685026299204955
779,0.376464307308197,0.48214423656463623,0.94,0.83,0.00039685026299204955
780,0.3764389157295227,0.4820984899997711,0.94,0.83,0.00039685026299204955
781,0.3764146566390991,0.4820188283920288,0.94,0.83,0.00039685026299204955
782,0.3763904869556427,0.4819225072860718,0.94,0.83,0.00039685026299204955
783,0.376366525888443,0.48183754086494446,0.94,0.83,0.00039685026299204955
784,0.37634286284446716,0.48176345229148865,0.94,0.83,0.00039685026299204955
785,0.37631919980049133,0.4817003607749939,0.94,0.83,0.00039685026299204955
786,0.376295268535614,0.4816685914993286,0.94,0.83,0.00039685026299204955
787,0.37627264857292175,0.481578528881073,0.94,0.83,0.00039685026299204955
788,0.3762500286102295,0.4814581274986267,0.94,0.83,0.00039685026299204955
789,0.3762265741825104,0.48138511180877686,0.94,0.83,0.00039685026299204955
790,0.37620440125465393,0.48134365677833557,0.94,0.83,0.00039685026299204955
791,0.3761829435825348,0.4812568426132202,0.94,0.83,0.00039685026299204955
792,0.37616050243377686,0.4811393618583679,0.94,0.83,0.00039685026299204955
793,0.37613850831985474,0.4810706675052643,0.94,0.83,0.00039685026299204955
794,0.37611716985702515,0.48101937770843506,0.94,0.83,0.00039685026299204955
795,0.37609636783599854,0.4809085726737976,0.94,0.83,0.00039685026299204955
796,0.37607520818710327,0.4808216989040375,0.94,0.83,0.00039685026299204955
797,0.37605395913124084,0.48072540760040283,0.94,0.83,0.00039685026299204955
798,0.37603333592414856,0.4806445240974426,0.94,0.83,0.00039685026299204955
799,0.37601345777511597,0.48054397106170654,0.94,0.83,0.00039685026299204955
800,0.3759927451610565,0.4804428517818451,0.94,0.83,0.00039685026299204955
801,0.3759728968143463,0.480326384305954,0.94,0.83,0.00039685026299204955
802,0.3759531080722809,0.4802168309688568,0.94,0.83,0.00039685026299204955
803,0.37593334913253784,0.48013997077941895,0.94,0.83,0.00039685026299204955
804,0.3759142756462097,0.48002055287361145,0.94,0.83,0.00039685026299204955
805,0.37589508295059204,0.4798426032066345,0.94,0.83,0.00039685026299204955
806,0.3758750855922699,0.4797292649745941,0.94,0.83,0.00039685026299204955
807,0.3758566975593567,0.479648232460022,0.94,0.83,0.00039685026299204955
808,0.3758378326892853,0.47949832677841187,0.94,0.83,0.00039685026299204955
809,0.37581923604011536,0.47926074266433716,0.94,0.83,0.00039685026299204955
810,0.37580081820487976,0.4791097939014435,0.94,0.83,0.00039685026299204955
811,0.3757825195789337,0.4790232181549072,0.94,0.83,0.00039685026299204955
812,0.3757648766040802,0.47882845997810364,0.94,0.83,0.00039685026299204955
813,0.3757471442222595,0.47853943705558777,0.94,0.83,0.00039685026299204955
814,0.3757293224334717,0.47832411527633667,0.94,0.83,0.00039685026299204955
815,0.3757115602493286,0.47815945744514465,0.94,0.83,0.00039685026299204955
816,0.37569424510002136,0.4779715836048126,0.94,0.83,0.00039685026299204955
817,0.37567728757858276,0.4776897728443146,0.94,0.83,0.00039685026299204955
818,0.3756605088710785,0.4773392975330353,0.94,0.83,0.00039685026299204955
819,0.37564361095428467,0.47707435488700867,0.94,0.83,0.00039685026299204955
820,0.37562671303749084,0.47681576013565063,0.94,0.83,0.00039685026299204955
821,0.3756099343299866,0.4766232967376709,0.94,0.83,0.00039685026299204955
822,0.3755938410758972,0.47621265053749084,0.94,0.83,0.00039685026299204955
823,0.3755778968334198,0.4757751524448395,0.94,0.83,0.00039685026299204955
824,0.37556174397468567,0.4754317104816437,0.94,0.83,0.00039685026299204955
825,0.37554579973220825,0.4751591980457306,0.94,0.83,0.00039685026299204955
826,0.3755301535129547,0.4748248755931854,0.94,0.83,0.00039685026299204955
827,0.37551432847976685,0.47443264722824097,0.94,0.83,0.00039685026299204955
828,0.3754991292953491,0.4738849997520447,0.94,0.83,0.00039685026299204955
829,0.37548351287841797,0.4735623598098755,0.94,0.84,0.00039685026299204955
830,0.3754681646823883,0.47335007786750793,0.94,0.84,0.00039685026299204955
831,0.37545323371887207,0.47310391068458557,0.94,0.84,0.00039685026299204955
832,0.3754386603832245,0.4725830852985382,0.94,0.84,0.00039685026299204955
833,0.37542393803596497,0.4721645712852478,0.94,0.84,0.00039685026299204955
834,0.37540942430496216,0.4718654751777649,0.94,0.84,0.00039685026299204955
835,0.3753948509693146,0.47172561287879944,0.94,0.84,0.00039685026299204955
836,0.37538036704063416,0.47150951623916626,0.94,0.84,0.00039685026299204955
837,0.3753661811351776,0.4711805582046509,0.94,0.84,0.00039685026299204955
838,0.37535199522972107,0.4708404839038849,0.94,0.84,0.00039685026299204955
839,0.37533819675445557,0.4706073999404907,0.94,0.84,0.00039685026299204955
840,0.3753245174884796,0.470500648021698,0.94,0.84,0.00039685026299204955
841,0.3753105103969574,0.47040534019470215,0.94,0.84,0.00039685026299204955
842,0.3752973973751068,0.4701923727989197,0.94,0.84,0.00039685026299204955
843,0.3752840757369995,0.4699956774711609,0.94,0.84,0.00039685026299204955
844,0.3752708435058594,0.46983271837234497,0.94,0.84,0.00039685026299204955
845,0.3752578794956207,0.4697165787220001,0.94,0.84,0.00039685026299204955
846,0.3752443790435791,0.4697053134441376,0.94,0.84,0.00039685026299204955
847,0.37523162364959717,0.46962615847587585,0.94,0.84,0.00039685026299204955
848,0.3752186894416809,0.4694838225841522,0.94,0.84,0.00039685026299204955
849,0.37520626187324524,0.46933019161224365,0.94,0.84,0.00039685026299204955
850,0.37519383430480957,0.46924060583114624,0.94,0.84,0.00039685026299204955
851,0.3751811981201172,0.4692593812942505,0.94,0.84,0.00039685026299204955
852,0.37516865134239197,0.46922701597213745,0.94,0.84,0.00039685026299204955
853,0.3751566708087921,0.4691416025161743,0.94,0.84,0.00039685026299204955
854,0.3751446604728699,0.46899715065956116,0.94,0.84,0.00039685026299204955
855,0.3751325309276581,0.46894538402557373,0.94,0.84,0.00039685026299204955
856,0.3751208186149597,0.46896934509277344,0.94,0.84,0.00039685026299204955
857,0.3751090168952942,0.4689326882362366,0.94,0.84,0.00039685026299204955
858,0.37509745359420776,0.4688256084918976,0.94,0.84,0.00039685026299204955
859,0.37508559226989746,0.4687676727771759,0.94,0.84,0.00039685026299204955
860,0.37507426738739014,0.46876129508018494,0.94,0.84,0.00039685026299204955
861,0.37506309151649475,0.46872788667678833,0.94,0.84,0.00039685026299204955
862,0.37505200505256653,0.46866390109062195,0.94,0.84,0.00039685026299204955
863,0.3750409185886383,0.4686145484447479,0.94,0.84,0.00039685026299204955
864,0.3750298321247101,0.4685652256011963,0.94,0.84,0.00039685026299204955
865,0.37501880526542664,0.4685656726360321,0.94,0.84,0.00039685026299204955
866,0.37500840425491333,0.46854642033576965,0.94,0.84,0.00039685026299204955
867,0.37499773502349854,0.4684675335884094,0.94,0.84,0.00039685026299204955
868,0.3749866485595703,0.4684053361415863,0.94,0.84,0.00039685026299204955
869,0.3749760687351227,0.4683963656425476,0.94,0.84,0.00039685026299204955
870,0.3749659061431885,0.4683811068534851,0.94,0.84,0.00039685026299204955
871,0.3749552071094513,0.46835339069366455,0.94,0.84,0.00031498026247371797
872,0.3749452829360962,0.4683131277561188,0.94,0.84,0.00031498026247371797
873,0.3749375641345978,0.4682675898075104,0.94,0.84,0.00031498026247371797
874,0.374929815530777,0.46822789311408997,0.94,0.84,0.00031498026247371797
875,0.37492167949676514,0.46820923686027527,0.94,0.84,0.00031498026247371797
876,0.37491375207901,0.46819767355918884,0.94,0.84,0.00031498026247371797
877,0.3749058246612549,0.46820077300071716,0.94,0.84,0.00031498026247371797
878,0.3748980462551117,0.4681575298309326,0.94,0.84,0.00031498026247371797
879,0.37489044666290283,0.4681004285812378,0.94,0.84,0.00031498026247371797
880,0.37488260865211487,0.46806836128234863,0.94,0.84,0.00031498026247371797
881,0.37487518787384033,0.4680527150630951,0.94,0.84,0.00031498026247371797
882,0.37486785650253296,0.4680546820163727,0.94,0.84,0.00031498026247371797
883,0.3748602271080017,0.4680425524711609,0.94,0.84,0.00031498026247371797
884,0.3748529553413391,0.4680005609989166,0.94,0.84,0.00031498026247371797
885,0.37484559416770935,0.46795928478240967,0.94,0.84,0.00031498026247371797
886,0.37483829259872437,0.46792346239089966,0.94,0.84,0.00031498026247371797
887,0.374830961227417,0.4678843319416046,0.94,0.84,0.00031498026247371797
888,0.3748238682746887,0.46788638830184937,0.94,0.84,0.00031498026247371797
889,0.3748166263103485,0.467905193567276,0.94,0.84,0.00031498026247371797
890,0.3748095631599426,0.46786534786224365,0.94,0.84,0.00031498026247371797
891,0.3748025596141815,0.467803955078125,0.94,0.84,0.00031498026247371797
892,0.37479549646377563,0.4677704870700836,0.94,0.84,0.00031498026247371797
893,0.3747888505458832,0.4677594006061554,0.94,0.84,0.00031498026247371797
894,0.3747817575931549,0.46774303913116455,0.94,0.84,0.00031498026247371797
895,0.3747749328613281,0.46773388981819153,0.94,0.84,0.00031498026247371797
896,0.37476810812950134,0.4676968455314636,0.94,0.84,0.00031498026247371797
897,0.37476128339767456,0.467655748128891,0.94,0.84,0.00031498026247371797
898,0.37475451827049255,0.46764740347862244,0.94,0.84,0.00031498026247371797
899,0.3747478425502777,0.4676342308521271,0.94,0.84,0.00031498026247371797
900,0.3747415244579315,0.46761947870254517,0.94,0.84,0.00031498026247371797
901,0.3747347891330719,0.4675876498222351,0.94,0.84,0.00031498026247371797
902,0.3747282326221466,0.4675392210483551,0.94,0.84,0.00031498026247371797
903,0.3747219145298004,0.46750345826148987,0.94,0.84,0.00031498026247371797
904,0.3747154176235199,0.46749913692474365,0.94,0.84,0.00031498026247371797
905,0.3747091591358185,0.467503160238266,0.94,0.84,0.00031498026247371797
906,0.3747026324272156,0.4674777090549469,0.94,0.84,0.00031498026247371797
907,0.3746963143348694,0.4674232602119446,0.94,0.84,0.00031498026247371797
908,0.3746900260448456,0.46740686893463135,0.94,0.84,0.00031498026247371797
909,0.37468379735946655,0.4673837423324585,0.94,0.84,0.00031498026247371797
910,0.37467777729034424,0.46736469864845276,0.94,0.84,0.00031498026247371797
911,0.3746717870235443,0.46734675765037537,0.94,0.84,0.00031498026247371797
912,0.37466537952423096,0.4673272371292114,0.94,0.84,0.00031498026247371797
913,0.37465915083885193,0.4673106074333191,0.94,0.84,0.00031498026247371797
914,0.374653160572052,0.4672802686691284,0.94,0.84,0.00031498026247371797
915,0.37464743852615356,0.46725180745124817,0.94,0.84,0.00031498026247371797
916,0.37464165687561035,0.4672219455242157,0.94,0.84,0.00031498026247371797
917,0.37463560700416565,0.4671938419342041,0.94,0.84,0.00031498026247371797
918,0.37462958693504333,0.4672006368637085,0.94,0.84,0.00031498026247371797
919,0.3746238946914673,0.46719682216644287,0.94,0.84,0.00031498026247371797
920,0.3746180832386017,0.4671698808670044,0.94,0.84,0.00031498026247371797
921,0.374612420797348,0.4671168625354767,0.94,0.84,0.00031498026247371797
922,0.3746068477630615,0.46708422899246216,0.94,0.84,0.00031498026247371797
923,0.37460097670555115,0.46706339716911316,0.94,0.84,0.00031498026247371797
924,0.3745952844619751,0.46706441044807434,0.94,0.84,0.00031498026247371797
925,0.37458980083465576,0.467063307762146,0.94,0.84,0.00031498026247371797
926,0.3745843768119812,0.4670214354991913,0.94,0.84,0.00031498026247371797
927,0.3745787441730499,0.4669699966907501,0.94,0.84,0.00031498026247371797
928,0.37457311153411865,0.4669674336910248,0.94,0.84,0.00031498026247371797
929,0.3745676279067993,0.4669656455516815,0.94,0.84,0.00031498026247371797
930,0.3745622932910919,0.4669405221939087,0.94,0.84,0.00031498026247371797
931,0.3745567202568054,0.4669039249420166,0.94,0.84,0.00031498026247371797
932,0.37455135583877563,0.4668930768966675,0.94,0.84,0.00031498026247371797
933,0.37454602122306824,0.46688514947891235,0.94,0.84,0.00031498026247371797
934,0.3745409846305847,0.4668719172477722,0.94,0.84,0.00031498026247371797
935,0.374535471200943,0.46684566140174866,0.94,0.84,0.00031498026247371797
936,0.3745303750038147,0.4668125808238983,0.94,0.84,0.00031498026247371797
937,0.374525249004364,0.46677273511886597,0.94,0.84,0.00031498026247371797
938,0.37452006340026855,0.4667551815509796,0.94,0.84,0.00031498026247371797
939,0.37451493740081787,0.4667571187019348,0.94,0.84,0.00031498026247371797
940,0.37450993061065674,0.4667506814002991,0.94,0.84,0.00031498026247371797
941,0.37450480461120605,0.46674221754074097,0.94,0.84,0.00031498026247371797
942,0.3744999170303345,0.4666978418827057,0.94,0.84,0.00031498026247371797
943,0.37449485063552856,0.4666455090045929,0.94,0.84,0.00031498026247371797
944,0.3744899034500122,0.4666306972503662,0.94,0.84,0.00031498026247371797
945,0.3744850158691406,0.46662795543670654,0.94,0.84,0.00031498026247371797
946,0.3744800090789795,0.46664437651634216,0.94,0.84,0.00031498026247371797
947,0.3744750916957855,0.4666224718093872,0.94,0.84,0.00031498026247371797
948,0.3744703233242035,0.46659138798713684,0.94,0.84,0.00031498026247371797
949,0.37446555495262146,0.46654143929481506,0.94,0.84,0.00031498026247371797
950,0.37446078658103943,0.4665079116821289,0.94,0.84,0.00031498026247371797
951,0.374455988407135,0.4665137827396393,0.94,0.84,0.00031498026247371797
952,0.37445104122161865,0.4665428102016449,0.94,0.84,0.00031498026247371797
953,0.3744465708732605,0.4665358364582062,0.94,0.84,0.00031498026247371797
954,0.37444183230400085,0.46648460626602173,0.94,0.84,0.00031498026247371797
955,0.3744370639324188,0.4664362072944641,0.94,0.84,0.00031498026247371797
956,0.37443259358406067,0.46640583872795105,0.94,0.84,0.00031498026247371797
957,0.3744280934333801,0.4663982391357422,0.94,0.84,0.00031498026247371797
958,0.3744235336780548,0.4664071798324585,0.94,0.84,0.00031498026247371797
959,0.37441906332969666,0.4663967192173004,0.94,0.84,0.00031498026247371797
960,0.3744146227836609,0.46639832854270935,0.94,0.84,0.00031498026247371797
961,0.37441006302833557,0.4663665294647217,0.94,0.84,0.00031498026247371797
962,0.3744055926799774,0.4663280248641968,0.94,0.84,0.00031498026247371797
963,0.37440112233161926,0.46627914905548096,0.94,0.84,0.00031498026247371797
964,0.3743967115879059,0.4662778377532959,0.94,0.84,0.00031498026247371797
965,0.37439239025115967,0.4662906527519226,0.94,0.84,0.00031498026247371797
966,0.3743879795074463,0.46629437804222107,0.94,0.84,0.00031498026247371797
967,0.3743837773799896,0.46628502011299133,0.94,0.84,0.00031498026247371797
968,0.37437954545021057,0.46623694896698,0.94,0.84,0.00031498026247371797
969,0.3743751049041748,0.4662013649940491,0.94,0.84,0.00031498026247371797
970,0.37437084317207336,0.46617621183395386,0.94,0.84,0.00031498026247371797
971,0.37436679005622864,0.4661872386932373,0.94,0.84,0.00031498026247371797
972,0.374362587928772,0.4661841094493866,0.94,0.84,0.0002499999999999997
973,0.3743583559989929,0.4661865234375,0.94,0.84,0.0002499999999999997
974,0.3743551969528198,0.46617352962493896,0.94,0.84,0.0002499999999999997
975,0.37435194849967957,0.46614357829093933,0.94,0.84,0.0002499999999999997
976,0.37434861063957214,0.4661005735397339,0.94,0.84,0.0002499999999999997
977,0.3743453919887543,0.466091513633728,0.94,0.84,0.0002499999999999997
978,0.3743422031402588,0.46608874201774597,0.94,0.84,0.0002499999999999997
979,0.374338835477829,0.46610355377197266,0.94,0.84,0.0002499999999999997
980,0.37433570623397827,0.46612054109573364,0.94,0.84,0.0002499999999999997
981,0.37433260679244995,0.46612006425857544,0.94,0.84,0.0002499999999999997
982,0.37432947754859924,0.4660707712173462,0.94,0.84,0.0002499999999999997
983,0.37432625889778137,0.46601852774620056,0.94,0.84,0.0002499999999999997
984,0.37432318925857544,0.4659993350505829,0.94,0.84,0.0002499999999999997
985,0.37432000041007996,0.46599456667900085,0.94,0.84,0.0002499999999999997
986,0.374316930770874,0.466008722782135,0.94,0.84,0.0002499999999999997
987,0.3743138015270233,0.4660312533378601,0.94,0.84,0.0002499999999999997
988,0.3743106424808502,0.46603479981422424,0.94,0.84,0.0002499999999999997
989,0.3743077516555786,0.46602046489715576,0.94,0.84,0.0002499999999999997
990,0.374304860830307,0.4659827947616577,0.94,0.84,0.0002499999999999997
991,0.3743017613887787,0.46593815088272095,0.94,0.84,0.0002499999999999997
992,0.37429866194725037,0.4659174680709839,0.94,0.84,0.0002499999999999997
993,0.37429580092430115,0.46591809391975403,0.94,0.84,0.0002499999999999997
994,0.37429279088974,0.46592608094215393,0.94,0.84,0.0002499999999999997
995,0.37428951263427734,0.4659501910209656,0.94,0.84,0.0002499999999999997
996,0.37428662180900574,0.4659516513347626,0.94,0.84,0.0002499999999999997
997,0.37428367137908936,0.46592509746551514,0.94,0.84,0.0002499999999999997
998,0.3742806613445282,0.4659021496772766,0.94,0.84,0.0002499999999999997
999,0.374277800321579,0.46587464213371277,0.94,0.85,0.0002499999999999997
1000,0.37427496910095215,0.46584832668304443,0.94,0.85,0.0002499999999999997
1001,0.374271959066391,0.4658535122871399,0.94,0.85,0.0002499999999999997
1002,0.3742690980434418,0.46586352586746216,0.94,0.85,0.0002499999999999997
1003,0.3742663264274597,0.46585366129875183,0.94,0.85,0.0002499999999999997
1004,0.3742634654045105,0.46585726737976074,0.94,0.85,0.0002499999999999997
1005,0.37426072359085083,0.46585264801979065,0.94,0.85,0.0002499999999999997
1006,0.37425777316093445,0.46582022309303284,0.94,0.85,0.0002499999999999997
1007,0.3742550015449524,0.46580299735069275,0.94,0.85,0.0002499999999999997
1008,0.3742522895336151,0.46578091382980347,0.94,0.85,0.0002499999999999997
1009,0.37424930930137634,0.46577876806259155,0.94,0.85,0.0002499999999999997
1010,0.3742465078830719,0.4657807946205139,0.94,0.85,0.0002499999999999997
1011,0.37424370646476746,0.4657958149909973,0.94,0.85,0.0002499999999999997
1012,0.374240905046463,0.4658034145832062,0.94,0.85,0.0002499999999999997
1013,0.37423810362815857,0.4657844603061676,0.94,0.85,0.0002499999999999997
1014,0.3742353022098541,0.4657621681690216,0.94,0.85,0.0002499999999999997
1015,0.37423256039619446,0.4657321870326996,0.94,0.85,0.0002499999999999997
1016,0.37422996759414673,0.4657009541988373,0.94,0.85,0.0002499999999999997
1017,0.3742271661758423,0.46570146083831787,0.94,0.85,0.0002499999999999997
1018,0.37422457337379456,0.46571922302246094,0.94,0.85,0.0002499999999999997
1019,0.3742218315601349,0.4657415449619293,0.94,0.85,0.0002499999999999997
1020,0.3742191195487976,0.46575093269348145,0.94,0.85,0.0002499999999999997
1021,0.37421664595603943,0.46572601795196533,0.94,0.85,0.0002499999999999997
1022,0.3742140233516693,0.46568143367767334,0.94,0.85,0.0002499999999999997
1023,0.37421131134033203,0.46566498279571533,0.94,0.85,0.0002499999999999997
1024,0.3742086887359619,0.4656471610069275,0.94,0.85,0.0002499999999999997
1025,0.3742060959339142,0.4656665325164795,0.94,0.85,0.0002499999999999997
1026,0.3742034435272217,0.4656895101070404,0.94,0.85,0.0002499999999999997
1027,0.3742009401321411,0.46568652987480164,0.94,0.85,0.0002499999999999997
1028,0.37419813871383667,0.4656764268875122,0.94,0.85,0.0002499999999999997
1029,0.37419578433036804,0.46565231680870056,0.94,0.85,0.0002499999999999997
1030,0.37419310212135315,0.4656229317188263,0.94,0.85,0.0002499999999999997
1031,0.3741905689239502,0.46562764048576355,0.94,0.85,0.0002499999999999997
1032,0.37418800592422485,0.4656153917312622,0.94,0.85,0.0002499999999999997
1033,0.3741854131221771,0.46562349796295166,0.94,0.85,0.0002499999999999997
1034,0.37418293952941895,0.4656248390674591,0.94,0.85,0.0002499999999999997
1035,0.374180406332016,0.4656432271003723,0.94,0.85,0.0002499999999999997
1036,0.37417784333229065,0.46562913060188293,0.94,0.85,0.0002499999999999997
1037,0.37417545914649963,0.4655908942222595,0.94,0.85,0.0002499999999999997
1038,0.3741728663444519,0.4655749797821045,0.94,0.85,0.0002499999999999997
1039,0.37417054176330566,0.4655686318874359,0.94,0.85,0.0002499999999999997
1040,0.3741680383682251,0.46557098627090454,0.94,0.85,0.0002499999999999997
1041,0.37416550517082214,0.465587317943573,0.94,0.85,0.0002499999999999997
1042,0.37416312098503113,0.46559426188468933,0.94,0.85,0.0002499999999999997
1043,0.3741605877876282,0.4655831456184387,0.94,0.85,0.0002499999999999997
1044,0.37415826320648193,0.4655674993991852,0.94,0.85,0.0002499999999999997
1045,0.37415575981140137,0.465536504983902,0.94,0.85,0.0002499999999999997
1046,0.3741532862186432,0.4655305743217468,0.94,0.85,0.0002499999999999997
1047,0.37415093183517456,0.4655260741710663,0.94,0.85,0.0002499999999999997
1048,0.3741486370563507,0.4655328691005707,0.94,0.85,0.0002499999999999997
1049,0.37414607405662537,0.4655468463897705,0.94,0.85,0.0002499999999999997
1050,0.3741438388824463,0.46554842591285706,0.94,0.85,0.0002499999999999997
1051,0.3741415739059448,0.4655357003211975,0.94,0.85,0.0002499999999999997
1052,0.3741392493247986,0.4655098617076874,0.94,0.85,0.0002499999999999997
1053,0.3741368353366852,0.4654819071292877,0.94,0.85,0.0002499999999999997
1054,0.3741345703601837,0.465482622385025,0.94,0.85,0.0002499999999999997
1055,0.3741321563720703,0.4655001163482666,0.94,0.85,0.0002499999999999997
1056,0.37412986159324646,0.46550843119621277,0.94,0.85,0.0002499999999999997
1057,0.37412747740745544,0.46551400423049927,0.94,0.85,0.0002499999999999997
1058,0.374125212430954,0.46550777554512024,0.94,0.85,0.0002499999999999997
1059,0.3741229772567749,0.4654926061630249,0.94,0.85,0.0002499999999999997
1060,0.3741206228733063,0.4654759168624878,0.94,0.85,0.0002499999999999997
1061,0.3741183876991272,0.46545475721359253,0.94,0.85,0.0002499999999999997
1062,0.3741162121295929,0.46545642614364624,0.94,0.85,0.0002499999999999997
1063,0.3741140067577362,0.46545660495758057,0.94,0.85,0.0002499999999999997
1064,0.3741116225719452,0.46547266840934753,0.94,0.85,0.0002499999999999997
1065,0.3741094172000885,0.4654609262943268,0.94,0.85,0.0002499999999999997
1066,0.3741072118282318,0.4654574692249298,0.94,0.85,0.0002499999999999997
1067,0.37410494685173035,0.46543583273887634,0.94,0.85,0.0002499999999999997
1068,0.37410271167755127,0.4654282033443451,0.94,0.85,0.0002499999999999997
1069,0.37410059571266174,0.46541890501976013,0.94,0.85,0.0002499999999999997
1070,0.37409836053848267,0.465412437915802,0.94,0.85,0.0002499999999999997
1071,0.3740960955619812,0.4654211103916168,0.94,0.85,0.0002499999999999997
1072,0.37409400939941406,0.4654357135295868,0.94,0.85,0.0002499999999999997
1073,0.3740919530391693,0.4654217064380646,0.94,0.85,0.00019842513149602464
1074,0.374089777469635,0.4654262661933899,0.94,0.85,0.00019842513149602464
1075,0.3740880489349365,0.4654172956943512,0.94,0.85,0.00019842513149602464
1076,0.37408626079559326,0.4654152989387512,0.94,0.85,0.00019842513149602464
1077,0.37408459186553955,0.4654119610786438,0.94,0.85,0.00019842513149602464
1078,0.3740829825401306,0.4654090404510498,0.94,0.85,0.00019842513149602464
1079,0.3740813434123993,0.4654126763343811,0.94,0.85,0.00019842513149602464
1080,0.3740796148777008,0.46540316939353943,0.94,0.85,0.00019842513149602464
1081,0.3740779757499695,0.4653967320919037,0.94,0.85,0.00019842513149602464
1082,0.37407639622688293,0.4653899669647217,0.94,0.85,0.00019842513149602464
1083,0.37407466769218445,0.46540477871894836,0.94,0.85,0.00019842513149602464
1084,0.3740730285644531,0.4653918743133545,0.94,0.85,0.00019842513149602464
1085,0.3740712106227875,0.4653749465942383,0.94,0.85,0.00019842513149602464
1086,0.37406957149505615,0.46534305810928345,0.94,0.85,0.00019842513149602464
1087,0.37406790256500244,0.46535277366638184,0.94,0.85,0.00019842513149602464
1088,0.3740662634372711,0.46538233757019043,0.94,0.85,0.00019842513149602464
1089,0.374064564704895,0.4653983414173126,0.94,0.85,0.00019842513149602464
1090,0.37406298518180847,0.46539267897605896,0.94,0.85,0.00019842513149602464
1091,0.3740614056587219,0.46537071466445923,0.94,0.85,0.00019842513149602464
1092,0.3740597069263458,0.465348482131958,0.94,0.85,0.00019842513149602464
1093,0.3740582764148712,0.46533203125,0.94,0.85,0.00019842513149602464
1094,0.3740565776824951,0.46532508730888367,0.94,0.85,0.00019842513149602464
1095,0.37405502796173096,0.46532100439071655,0.94,0.85,0.00019842513149602464
1096,0.374053418636322,0.4653303027153015,0.94,0.85,0.00019842513149602464
1097,0.3740518093109131,0.4653438925743103,0.94,0.85,0.00019842513149602464
1098,0.37405022978782654,0.46536022424697876,0.94,0.85,0.00019842513149602464
1099,0.3740486204624176,0.46535903215408325,0.94,0.85,0.00019842513149602464
1100,0.3740469813346863,0.46535181999206543,0.94,0.85,0.00019842513149602464
1101,0.3740454614162445,0.46533069014549255,0.94,0.85,0.00019842513149602464
1102,0.3740438222885132,0.4653116464614868,0.94,0.85,0.00019842513149602464
1103,0.3740423321723938,0.46530890464782715,0.94,0.85,0.00019842513149602464
1104,0.3740408420562744,0.46530282497406006,0.94,0.85,0.00019842513149602464
1105,0.3740391135215759,0.4652963876724243,0.94,0.85,0.00019842513149602464
1106,0.37403762340545654,0.46531689167022705,0.94,0.85,0.00019842513149602464
1107,0.3740360736846924,0.46532315015792847,0.94,0.85,0.00019842513149602464
1108,0.3740345239639282,0.46533656120300293,0.94,0.85,0.00019842513149602464
1109,0.37403297424316406,0.46532320976257324,0.94,0.85,0.00019842513149602464
1110,0.3740314245223999,0.4653117060661316,0.94,0.85,0.00019842513149602464
1111,0.3740299344062805,0.46529990434646606,0.94,0.85,0.00019842513149602464
1112,0.37402835488319397,0.46528786420822144,0.94,0.85,0.00019842513149602464
1113,0.37402698397636414,0.46528419852256775,0.94,0.85,0.00019842513149602464
1114,0.3740253746509552,0.4652932286262512,0.94,0.85,0.00019842513149602464
1115,0.3740238547325134,0.4653012752532959,0.94,0.85,0.00019842513149602464
1116,0.37402233481407166,0.4652974605560303,0.94,0.85,0.00019842513149602464
1117,0.37402084469795227,0.4652944505214691,0.94,0.85,0.00019842513149602464
1118,0.3740193545818329,0.46528077125549316,0.94,0.85,0.00019842513149602464
1119,0.3740178346633911,0.46527099609375,0.94,0.85,0.00019842513149602464
1120,0.3740163743495941,0.4652559161186218,0.94,0.85,0.00019842513149602464
1121,0.37401488423347473,0.46525830030441284,0.94,0.85,0.00019842513149602464
1122,0.37401333451271057,0.46526822447776794,0.94,0.85,0.00019842513149602464
1123,0.3740118145942688,0.46526727080345154,0.94,0.85,0.00019842513149602464
1124,0.3740103244781494,0.4652771055698395,0.94,0.85,0.00019842513149602464
1125,0.3740089535713196,0.4652711749076843,0.94,0.85,0.00019842513149602464
1126,0.3740074038505554,0.4652584493160248,0.94,0.85,0.00019842513149602464
1127,0.3740060031414032,0.46523982286453247,0.94,0.85,0.00019842513149602464
1128,0.3740045428276062,0.465241402387619,0.94,0.85,0.00019842513149602464
1129,0.3740031123161316,0.4652407765388489,0.94,0.85,0.00019842513149602464
1130,0.3740015923976898,0.46522197127342224,0.94,0.85,0.00019842513149602464
1131,0.37400004267692566,0.46522098779678345,0.94,0.85,0.00019842513149602464
1132,0.3739985525608063,0.4652387499809265,0.94,0.85,0.00019842513149602464
1133,0.37399718165397644,0.4652497470378876,0.94,0.85,0.00019842513149602464
1134,0.3739958107471466,0.4652467370033264,0.94,0.85,0.00019842513149602464
1135,0.373994380235672,0.46522513031959534,0.94,0.85,0.00019842513149602464
1136,0.37399283051490784,0.46519187092781067,0.94,0.85,0.00019842513149602464
1137,0.3739914298057556,0.4651922285556793,0.94,0.85,0.00019842513149602464
1138,0.3739899694919586,0.4652048349380493,0.94,0.85,0.00019842513149602464
1139,0.3739885985851288,0.4652039408683777,0.94,0.85,0.00019842513149602464
1140,0.3739871680736542,0.4652186930179596,0.94,0.85,0.00019842513149602464
1141,0.37398573756217957,0.4652230441570282,0.94,0.85,0.00019842513149602464
1142,0.37398433685302734,0.46520256996154785,0.94,0.85,0.00019842513149602464
1143,0.37398287653923035,0.4651954174041748,0.94,0.85,0.00019842513149602464
1144,0.3739815056324005,0.46519365906715393,0.94,0.85,0.00019842513149602464
1145,0.3739801049232483,0.465189665555954,0.94,0.85,0.00019842513149602464
1146,0.37397873401641846,0.46518364548683167,0.94,0.85,0.00019842513149602464
1147,0.37397730350494385,0.46519944071769714,0.94,0.85,0.00019842513149602464
1148,0.3739759922027588,0.4651898443698883,0.94,0.85,0.00019842513149602464
1149,0.37397462129592896,0.4651853144168854,0.94,0.85,0.00019842513149602464
1150,0.3739732801914215,0.465169757604599,0.94,0.85,0.00019842513149602464
1151,0.3739719092845917,0.4651598036289215,0.94,0.85,0.00019842513149602464
1152,0.37397053837776184,0.4651666581630707,0.94,0.85,0.00019842513149602464
1153,0.37396910786628723,0.46518266201019287,0.94,0.85,0.00019842513149602464
1154,0.37396782636642456,0.4651683568954468,0.94,0.85,0.00019842513149602464
1155,0.37396639585494995,0.46515601873397827,0.94,0.85,0.00019842513149602464
1156,0.37396499514579773,0.46513378620147705,0.94,0.85,0.00019842513149602464
1157,0.37396374344825745,0.4651270806789398,0.94,0.85,0.00019842513149602464
1158,0.37396228313446045,0.46514078974723816,0.94,0.85,0.00019842513149602464
1159,0.373960942029953,0.46516337990760803,0.94,0.85,0.00019842513149602464
1160,0.3739596903324127,0.4651779532432556,0.94,0.85,0.00019842513149602464
1161,0.3739583492279053,0.46515557169914246,0.94,0.85,0.00019842513149602464
1162,0.37395691871643066,0.4651411175727844,0.94,0.85,0.00019842513149602464
1163,0.3739555776119232,0.4651212990283966,0.94,0.85,0.00019842513149602464
1164,0.37395423650741577,0.4651152789592743,0.94,0.85,0.00019842513149602464
1165,0.3739528954029083,0.4651038646697998,0.94,0.85,0.00019842513149602464
1166,0.37395164370536804,0.4651152789592743,0.94,0.85,0.00019842513149602464
1167,0.3739502727985382,0.46511781215667725,0.94,0.85,0.00019842513149602464
1168,0.3739490211009979,0.4651380479335785,0.94,0.85,0.00019842513149602464
1169,0.3739476799964905,0.465114563703537,0.94,0.85,0.00019842513149602464
1170,0.37394633889198303,0.46510210633277893,0.94,0.85,0.00019842513149602464
1171,0.3739449679851532,0.4650956988334656,0.94,0.85,0.00019842513149602464
1172,0.3739437162876129,0.46508896350860596,0.94,0.85,0.00019842513149602464
1173,0.37394240498542786,0.46509018540382385,0.94,0.85,0.00019842513149602464
1174,0.37394118309020996,0.46509021520614624,0.94,0.85,0.00015749013123685888
1175,0.3739399313926697,0.46509724855422974,0.94,0.85,0.00015749013123685888
1176,0.3739389181137085,0.4650971591472626,0.94,0.85,0.00015749013123685888
1177,0.3739378750324249,0.4650874733924866,0.94,0.85,0.00015749013123685888
1178,0.37393689155578613,0.4650910198688507,0.94,0.85,0.00015749013123685888
1179,0.3739358186721802,0.4650866687297821,0.94,0.85,0.00015749013123685888
1180,0.3739348351955414,0.465079128742218,0.94,0.85,0.00015749013123685888
1181,0.3739338219165802,0.4650605320930481,0.94,0.85,0.00015749013123685888
1182,0.373932808637619,0.46504947543144226,0.94,0.85,0.00015749013123685888
1183,0.3739318549633026,0.46505793929100037,0.94,0.85,0.00015749013123685888
1184,0.37393084168434143,0.46507710218429565,0.94,0.85,0.00015749013123685888
1185,0.37392979860305786,0.4650954008102417,0.94,0.85,0.00015749013123685888
1186,0.3739287853240967,0.465092271566391,0.94,0.85,0.00015749013123685888
1187,0.3739278018474579,0.46507272124290466,0.94,0.85,0.00015749013123685888
1188,0.37392672896385193,0.4650614261627197,0.94,0.85,0.00015749013123685888
1189,0.37392574548721313,0.4650505781173706,0.94,0.85,0.00015749013123685888
1190,0.37392479181289673,0.4650399684906006,0.94,0.85,0.00015749013123685888
1191,0.37392371892929077,0.4650372266769409,0.94,0.85,0.00015749013123685888
1192,0.37392279505729675,0.4650302529335022,0.94,0.85,0.00015749013123685888
1193,0.37392184138298035,0.4650167226791382,0.94,0.85,0.00015749013123685888
1194,0.3739207983016968,0.46502822637557983,0.94,0.85,0.00015749013123685888
1195,0.3739197850227356,0.46502920985221863,0.94,0.85,0.00015749013123685888
1196,0.3739187717437744,0.4650436341762543,0.94,0.85,0.00015749013123685888
1197,0.3739178478717804,0.4650498628616333,0.94,0.85,0.00015749013123685888
1198,0.37391698360443115,0.4650505483150482,0.94,0.85,0.00015749013123685888
1199,0.37391597032546997,0.4650319218635559,0.94,0.85,0.00015749013123685888
1200,0.3739149570465088,0.46502968668937683,0.94,0.85,0.00015749013123685888
1201,0.3739139437675476,0.46501585841178894,0.94,0.85,0.00015749013123685888
1202,0.3739129900932312,0.4649980068206787,0.94,0.85,0.00015749013123685888
1203,0.37391212582588196,0.4649967551231384,0.94,0.85,0.00015749013123685888
1204,0.373911052942276,0.46499958634376526,0.94,0.85,0.00015749013123685888
1205,0.37391018867492676,0.4650043249130249,0.94,0.85,0.00015749013123685888
1206,0.3739091753959656,0.46502017974853516,0.94,0.85,0.00015749013123685888
1207,0.3739081919193268,0.46500927209854126,0.94,0.85,0.00015749013123685888
1208,0.37390726804733276,0.4649862051010132,0.94,0.85,0.00015749013123685888
1209,0.37390631437301636,0.46497032046318054,0.94,0.85,0.00015749013123685888
1210,0.37390533089637756,0.46497535705566406,0.94,0.85,0.00015749013123685888
1211,0.37390440702438354,0.4649767279624939,0.94,0.85,0.00015749013123685888
1212,0.37390345335006714,0.4649713933467865,0.94,0.85,0.00015749013123685888
1213,0.37390241026878357,0.4649786651134491,0.94,0.85,0.00015749013123685888
1214,0.37390151619911194,0.464974045753479,0.94,0.85,0.00015749013123685888
1215,0.37390053272247314,0.464966356754303,0.94,0.85,0.00015749013123685888
1216,0.3738996386528015,0.4649568796157837,0.94,0.85,0.00015749013123685888
1217,0.3738987445831299,0.46495914459228516,0.94,0.85,0.00015749013123685888
1218,0.3738977313041687,0.46495670080184937,0.94,0.85,0.00015749013123685888
1219,0.37389683723449707,0.4649396538734436,0.94,0.85,0.00015749013123685888
1220,0.3738958239555359,0.46491995453834534,0.94,0.85,0.00015749013123685888
1221,0.3738948702812195,0.4649256765842438,0.94,0.85,0.00015749013123685888
1222,0.37389400601387024,0.46493861079216003,0.94,0.85,0.00015749013123685888
1223,0.37389305233955383,0.46494773030281067,0.94,0.85,0.00015749013123685888
1224,0.3738921284675598,0.46493446826934814,0.94,0.85,0.00015749013123685888
1225,0.3738912343978882,0.464946448802948,0.94,0.85,0.00015749013123685888
1226,0.3738901913166046,0.4649431109428406,0.94,0.85,0.00015749013123685888
1227,0.3738892674446106,0.4649196267127991,0.94,0.85,0.00015749013123685888
1228,0.3738883137702942,0.4649050533771515,0.94,0.85,0.00015749013123685888
1229,0.37388741970062256,0.4648992121219635,0.94,0.85,0.00015749013123685888
1230,0.3738864064216614,0.4648868143558502,0.94,0.85,0.00015749013123685888
1231,0.37388545274734497,0.46487900614738464,0.94,0.85,0.00015749013123685888
1232,0.3738845884799957,0.4648771584033966,0.94,0.85,0.00015749013123685888
1233,0.3738836348056793,0.46487852931022644,0.94,0.85,0.00015749013123685888
1234,0.3738827407360077,0.46489500999450684,0.94,0.85,0.00015749013123685888
1235,0.37388184666633606,0.4649026095867157,0.94,0.85,0.00015749013123685888
1236,0.37388095259666443,0.46490052342414856,0.94,0.85,0.00015749013123685888
1237,0.3738800287246704,0.4648861289024353,0.94,0.85,0.00015749013123685888
1238,0.3738791346549988,0.4648559093475342,0.94,0.85,0.00015749013123685888
1239,0.3738783001899719,0.46484699845314026,0.94,0.85,0.00015749013123685888
1240,0.3738773465156555,0.4648512899875641,0.94,0.85,0.00015749013123685888
1241,0.3738764524459839,0.4648621678352356,0.94,0.85,0.00015749013123685888
1242,0.3738754987716675,0.4648720622062683,0.94,0.85,0.00015749013123685888
1243,0.373874694108963,0.4648776650428772,0.94,0.85,0.00015749013123685888
1244,0.3738737404346466,0.46488532423973083,0.94,0.85,0.00015749013123685888
1245,0.3738727867603302,0.4648725092411041,0.94,0.85,0.00015749013123685888
1246,0.37387192249298096,0.46485960483551025,0.94,0.85,0.00015749013123685888
1247,0.3738710880279541,0.4648488163948059,0.94,0.85,0.00015749013123685888
1248,0.3738701641559601,0.4648328125476837,0.94,0.85,0.00015749013123685888
1249,0.3738693594932556,0.4648197293281555,0.94,0.85,0.00015749013123685888
1250,0.3738684356212616,0.46482086181640625,0.94,0.85,0.00015749013123685888
1251,0.37386757135391235,0.4648350775241852,0.94,0.85,0.00015749013123685888
1252,0.3738666772842407,0.4648391306400299,0.94,0.85,0.00015749013123685888
1253,0.3738657832145691,0.4648451507091522,0.94,0.85,0.00015749013123685888
1254,0.37386494874954224,0.46484389901161194,0.94,0.85,0.00015749013123685888
1255,0.3738640546798706,0.4648357629776001,0.94,0.85,0.00015749013123685888
1256,0.37386322021484375,0.4648244380950928,0.94,0.85,0.00015749013123685888
1257,0.3738623857498169,0.46478787064552307,0.94,0.85,0.00015749013123685888
1258,0.3738614618778229,0.46477004885673523,0.94,0.85,0.00015749013123685888
1259,0.37386053800582886,0.4647798538208008,0.94,0.85,0.00015749013123685888
1260,0.373859703540802,0.46479079127311707,0.94,0.85,0.00015749013123685888
1261,0.3738587498664856,0.4647999107837677,0.94,0.85,0.00015749013123685888
1262,0.37385788559913635,0.4648338556289673,0.94,0.85,0.00015749013123685888
1263,0.3738570809364319,0.46483299136161804,0.94,0.85,0.00015749013123685888
1264,0.37385624647140503,0.4648135006427765,0.94,0.85,0.00015749013123685888
1265,0.3738552927970886,0.46480196714401245,0.94,0.85,0.00015749013123685888
1266,0.37385445833206177,0.4647708833217621,0.94,0.85,0.00015749013123685888
1267,0.37385356426239014,0.4647534191608429,0.94,0.85,0.00015749013123685888
1268,0.3738526999950409,0.4647556245326996,0.94,0.85,0.00015749013123685888
1269,0.3738517761230469,0.4647625982761383,0.94,0.85,0.00015749013123685888
1270,0.3738509714603424,0.4647684395313263,0.94,0.85,0.00015749013123685888
1271,0.37385016679763794,0.46477535367012024,0.94,0.85,0.00015749013123685888
1272,0.3738493025302887,0.4647740423679352,0.94,0.85,0.00015749013123685888
1273,0.37384846806526184,0.4647592604160309,0.94,0.85,0.00015749013123685888
1274,0.3738476634025574,0.46475082635879517,0.94,0.85,0.00015749013123685888
1275,0.3738468587398529,0.4647379219532013,0.94,0.85,0.00012499999999999976
1276,0.3738459646701813,0.46473628282546997,0.94,0.85,0.00012499999999999976
1277,0.37384533882141113,0.4647120535373688,0.94,0.85,0.00012499999999999976
1278,0.37384456396102905,0.46471449732780457,0.94,0.85,0.00012499999999999976
1279,0.37384384870529175,0.4647168219089508,0.94,0.85,0.00012499999999999976
1280,0.3738431930541992,0.464731901884079,0.94,0.85,0.00012499999999999976
1281,0.3738425374031067,0.46473464369773865,0.94,0.85,0.00012499999999999976
1282,0.3738418519496918,0.46472927927970886,0.94,0.85,0.00012499999999999976
1283,0.373841255903244,0.46472635865211487,0.94,0.85,0.00012499999999999976
1284,0.3738405704498291,0.4647219181060791,0.94,0.85,0.00012499999999999976
1285,0.37383994460105896,0.46470463275909424,0.94,0.85,0.00012499999999999976
1286,0.37383925914764404,0.46468132734298706,0.94,0.85,0.00012499999999999976
1287,0.37383854389190674,0.46467384696006775,0.94,0.85,0.00012499999999999976
1288,0.3738378882408142,0.464682400226593,0.94,0.85,0.00012499999999999976
1289,0.3738372325897217,0.46469390392303467,0.94,0.85,0.00012499999999999976
1290,0.37383654713630676,0.46468254923820496,0.94,0.85,0.00012499999999999976
1291,0.3738359212875366,0.4646936357021332,0.94,0.85,0.00012499999999999976
1292,0.3738352060317993,0.4646994471549988,0.94,0.85,0.00012499999999999976
1293,0.37383460998535156,0.4646981954574585,0.94,0.85,0.00012499999999999976
1294,0.3738340139389038,0.46469902992248535,0.94,0.85,0.00012499999999999976
1295,0.3738332986831665,0.4646940529346466,0.94,0.85,0.00012499999999999976
1296,0.37383270263671875,0.46467694640159607,0.94,0.85,0.00012499999999999976
1297,0.373832106590271,0.46467044949531555,0.94,0.85,0.00012499999999999976
1298,0.3738313913345337,0.4646577537059784,0.94,0.85,0.00012499999999999976
1299,0.37383076548576355,0.4646550118923187,0.94,0.85,0.00012499999999999976
1300,0.3738301396369934,0.46465978026390076,0.94,0.85,0.00012499999999999976
1301,0.3738294839859009,0.46466025710105896,0.94,0.85,0.00012499999999999976
1302,0.3738287687301636,0.4646700322628021,0.94,0.85,0.00012499999999999976
1303,0.3738281726837158,0.46467581391334534,0.94,0.85,0.00012499999999999976
1304,0.3738274872303009,0.4646768271923065,0.94,0.85,0.00012499999999999976
1305,0.37382686138153076,0.4646665155887604,0.94,0.85,0.00012499999999999976
1306,0.37382620573043823,0.4646375775337219,0.94,0.85,0.00012499999999999976
1307,0.3738255798816681,0.46462482213974,0.94,0.85,0.00012499999999999976
1308,0.37382495403289795,0.46462929248809814,0.94,0.85,0.00012499999999999976
1309,0.3738243579864502,0.46462783217430115,0.94,0.85,0.00012499999999999976
1310,0.3738236725330353,0.4646400809288025,0.94,0.85,0.00012499999999999976
1311,0.37382301688194275,0.4646376669406891,0.94,0.85,0.00012499999999999976
1312,0.37382230162620544,0.4646438956260681,0.94,0.85,0.00012499999999999976
1313,0.3738216757774353,0.4646354913711548,0.94,0.85,0.00012499999999999976
1314,0.3738209903240204,0.4646208584308624,0.94,0.85,0.00012499999999999976
1315,0.37382039427757263,0.4646049439907074,0.94,0.85,0.00012499999999999976
1316,0.3738197684288025,0.46459493041038513,0.94,0.85,0.00012499999999999976
1317,0.37381911277770996,0.46459826827049255,0.94,0.85,0.00012499999999999976
1318,0.37381842732429504,0.46460646390914917,0.94,0.85,0.00012499999999999976
1319,0.3738178610801697,0.4646066427230835,0.94,0.85,0.00012499999999999976
1320,0.3738170862197876,0.46460211277008057,0.94,0.85,0.00012499999999999976
1321,0.37381649017333984,0.46461182832717896,0.94,0.85,0.00012499999999999976
1322,0.3738158941268921,0.4646058976650238,0.94,0.85,0.00012499999999999976
1323,0.37381523847579956,0.464580237865448,0.94,0.85,0.00012499999999999976
1324,0.3738146722316742,0.46456190943717957,0.94,0.85,0.00012499999999999976
1325,0.37381404638290405,0.4645656943321228,0.94,0.85,0.00012499999999999976
1326,0.3738134503364563,0.4645566940307617,0.94,0.85,0.00012499999999999976
1327,0.3738127648830414,0.46454155445098877,0.94,0.85,0.00012499999999999976
1328,0.37381207942962646,0.46454212069511414,0.94,0.85,0.00012499999999999976
1329,0.3738114535808563,0.4645603895187378,0.94,0.85,0.00012499999999999976
1330,0.37381088733673096,0.46457183361053467,0.94,0.85,0.00012499999999999976
1331,0.3738102614879608,0.46457725763320923,0.94,0.85,0.00012499999999999976
1332,0.37380966544151306,0.4645742177963257,0.94,0.85,0.00012499999999999976
1333,0.3738090395927429,0.4645622670650482,0.94,0.85,0.00012499999999999976
1334,0.37380844354629517,0.4645485281944275,0.94,0.85,0.00012499999999999976
1335,0.3738078773021698,0.4645351469516754,0.94,0.85,0.00012499999999999976
1336,0.37380725145339966,0.4645236134529114,0.94,0.85,0.00012499999999999976
1337,0.37380656599998474,0.46451881527900696,0.94,0.85,0.00012499999999999976
1338,0.373805969953537,0.46452048420906067,0.94,0.85,0.00012499999999999976
1339,0.3738054037094116,0.46450671553611755,0.94,0.85,0.00012499999999999976
1340,0.37380465865135193,0.46451663970947266,0.94,0.85,0.00012499999999999976
1341,0.37380409240722656,0.46453458070755005,0.94,0.85,0.00012499999999999976
1342,0.3738034963607788,0.46452704071998596,0.94,0.85,0.00012499999999999976
1343,0.37380287051200867,0.46452704071998596,0.94,0.85,0.00012499999999999976
1344,0.37380221486091614,0.4645179510116577,0.94,0.85,0.00012499999999999976
1345,0.37380164861679077,0.46451252698898315,0.94,0.85,0.00012499999999999976
1346,0.373801052570343,0.46449536085128784,0.94,0.85,0.00012499999999999976
1347,0.3738004267215729,0.46447598934173584,0.94,0.85,0.00012499999999999976
1348,0.37379977107048035,0.4644734859466553,0.94,0.85,0.00012499999999999976
1349,0.3737991750240326,0.4644756317138672,0.94,0.85,0.00012499999999999976
1350,0.37379854917526245,0.4644785225391388,0.94,0.85,0.00012499999999999976
1351,0.3737979531288147,0.4644806385040283,0.94,0.85,0.00012499999999999976
1352,0.3737974166870117,0.4644814729690552,0.94,0.85,0.00012499999999999976
1353,0.3737967312335968,0.4644943177700043,0.94,0.85,0.00012499999999999976
1354,0.37379610538482666,0.4644834101200104,0.94,0.85,0.00012499999999999976
1355,0.37379559874534607,0.46446892619132996,0.94,0.85,0.00012499999999999976
1356,0.37379491329193115,0.46445396542549133,0.94,0.85,0.00012499999999999976
1357,0.373794287443161,0.46445369720458984,0.94,0.85,0.00012499999999999976
1358,0.37379375100135803,0.46445420384407043,0.94,0.85,0.00012499999999999976
1359,0.3737931549549103,0.46444129943847656,0.94,0.85,0.00012499999999999976
1360,0.37379252910614014,0.4644504487514496,0.94,0.85,0.00012499999999999976
1361,0.3737918734550476,0.46444201469421387,0.94,0.85,0.00012499999999999976
1362,0.37379127740859985,0.46443650126457214,0.94,0.85,0.00012499999999999976
1363,0.3737907111644745,0.4644237756729126,0.94,0.85,0.00012499999999999976
1364,0.3737899661064148,0.46442145109176636,0.94,0.85,0.00012499999999999976
1365,0.37378939986228943,0.4644237458705902,0.94,0.85,0.00012499999999999976
1366,0.37378886342048645,0.46441763639450073,0.94,0.85,0.00012499999999999976
1367,0.3737882375717163,0.4644125699996948,0.94,0.85,0.00012499999999999976
1368,0.37378770112991333,0.4644125998020172,0.94,0.85,0.00012499999999999976
1369,0.3737871050834656,0.46441450715065,0.94,0.85,0.00012499999999999976
1370,0.3737865090370178,0.4644099771976471,0.94,0.85,0.00012499999999999976
1371,0.3737858831882477,0.4644118845462799,0.94,0.85,0.00012499999999999976
1372,0.37378525733947754,0.4643964469432831,0.94,0.85,0.00012499999999999976
1373,0.3737846612930298,0.46438488364219666,0.94,0.85,0.00012499999999999976
1374,0.3737840950489044,0.4643843472003937,0.94,0.85,0.00012499999999999976
1375,0.37378349900245667,0.46438339352607727,0.94,0.85,0.00012499999999999976
1376,0.3737829625606537,0.4643908739089966,0.94,0.85,0.0001
1377,0.3737823963165283,0.46438896656036377,0.94,0.85,0.0001
1378,0.37378188967704773,0.4643925726413727,0.94,0.85,0.0001
1379,0.3737814724445343,0.46439215540885925,0.94,0.85,0.0001
1380,0.3737809658050537,0.46438634395599365,0.94,0.85,0.0001
1381,0.3737804889678955,0.46436962485313416,0.94,0.85,0.0001
1382,0.3737799823284149,0.46436062455177307,0.94,0.85,0.0001
1383,0.3737795948982239,0.4643518328666687,0.94,0.85,0.0001
1384,0.3737791180610657,0.46434903144836426,0.94,0.85,0.0001
1385,0.37377864122390747,0.4643462300300598,0.94,0.85,0.0001
1386,0.37377816438674927,0.46434950828552246,0.94,0.85,0.0001
1387,0.37377774715423584,0.46434468030929565,0.94,0.85,0.0001
1388,0.37377724051475525,0.46434521675109863,0.94,0.85,0.0001
1389,0.37377673387527466,0.4643569886684418,0.94,0.85,0.0001
1390,0.3737761974334717,0.46436822414398193,0.94,0.85,0.0001
1391,0.3737758696079254,0.4643675684928894,0.94,0.85,0.0001
1392,0.3737753629684448,0.46435871720314026,0.94,0.85,0.0001
1393,0.3737748861312866,0.46434593200683594,0.94,0.85,0.0001
1394,0.3737744092941284,0.464329332113266,0.94,0.85,0.0001
1395,0.3737739324569702,0.4643150568008423,0.94,0.85,0.0001
1396,0.373773455619812,0.4643036127090454,0.94,0.85,0.0001
1397,0.37377306818962097,0.46430569887161255,0.94,0.85,0.0001
1398,0.37377259135246277,0.46430814266204834,0.94,0.85,0.0001
1399,0.3737720847129822,0.46431347727775574,0.94,0.85,0.0001
1400,0.37377166748046875,0.464321106672287,0.94,0.85,0.0001
1401,0.37377122044563293,0.46432578563690186,0.94,0.85,0.0001
1402,0.3737708032131195,0.4643321633338928,0.94,0.85,0.0001
1403,0.3737703263759613,0.46432986855506897,0.94,0.85,0.0001
1404,0.3737698495388031,0.4643309712409973,0.94,0.85,0.0001
1405,0.3737693727016449,0.4643199145793915,0.94,0.85,0.0001
1406,0.37376895546913147,0.46429896354675293,0.94,0.85,0.0001
1407,0.3737684488296509,0.46429282426834106,0.94,0.85,0.0001
1408,0.37376800179481506,0.46428734064102173,0.94,0.85,0.0001
1409,0.37376758456230164,0.4642865061759949,0.94,0.85,0.0001
1410,0.3737671375274658,0.4642925560474396,0.94,0.85,0.0001
1411,0.3737666606903076,0.4642788767814636,0.94,0.85,0.0001
1412,0.3737661838531494,0.46427953243255615,0.94,0.85,0.0001
1413,0.3737657070159912,0.46427905559539795,0.94,0.85,0.0001
1414,0.3737652599811554,0.46426475048065186,0.94,0.85,0.0001
1415,0.3737647533416748,0.46426868438720703,0.94,0.85,0.0001
1416,0.3737643361091614,0.46426722407341003,0.94,0.85,0.0001
1417,0.37376388907432556,0.4642667770385742,0.94,0.85,0.0001
1418,0.37376347184181213,0.46425724029541016,0.94,0.85,0.0001
1419,0.37376293540000916,0.46425238251686096,0.94,0.85,0.0001
1420,0.37376242876052856,0.4642393887042999,0.94,0.85,0.0001
1421,0.37376198172569275,0.46423861384391785,0.94,0.85,0.0001
1422,0.3737615644931793,0.4642332196235657,0.94,0.85,0.0001
1423,0.37376105785369873,0.46423807740211487,0.94,0.85,0.0001
1424,0.3737606406211853,0.4642411470413208,0.94,0.85,0.0001
1425,0.3737601041793823,0.46423494815826416,0.94,0.85,0.0001
1426,0.3737597167491913,0.46423012018203735,0.94,0.85,0.0001
1427,0.37375926971435547,0.46422383189201355,0.94,0.85,0.0001
1428,0.37375885248184204,0.46420660614967346,0.94,0.85,0.0001
1429,0.3737584054470062,0.46418899297714233,0.94,0.85,0.0001
1430,0.3737579584121704,0.4641796052455902,0.94,0.85,0.0001
1431,0.3737574517726898,0.46418389678001404,0.94,0.85,0.0001
1432,0.373757004737854,0.46419230103492737,0.94,0.85,0.0001
1433,0.3737565875053406,0.46420931816101074,0.94,0.85,0.0001
1434,0.3737561106681824,0.464223712682724,0.94,0.85,0.0001
1435,0.37375563383102417,0.4642118215560913,0.94,0.85,0.0001
1436,0.37375515699386597,0.4642125964164734,0.94,0.85,0.0001
1437,0.37375473976135254,0.46420523524284363,0.94,0.85,0.0001
1438,0.3737543523311615,0.46419692039489746,0.94,0.85,0.0001
1439,0.37375393509864807,0.4641895294189453,0.94,0.85,0.0001
1440,0.37375351786613464,0.46417778730392456,0.94,0.85,0.0001
1441,0.37375304102897644,0.4641709625720978,0.94,0.85,0.0001
1442,0.3737525939941406,0.46416428685188293,0.94,0.85,0.0001
1443,0.3737521469593048,0.4641483426094055,0.94,0.85,0.0001
1444,0.3737517297267914,0.4641421437263489,0.94,0.85,0.0001
1445,0.37375128269195557,0.46414652466773987,0.94,0.85,0.0001
1446,0.37375080585479736,0.46416786313056946,0.94,0.85,0.0001
1447,0.37375038862228394,0.4641733169555664,0.94,0.85,0.0001
1448,0.3737499713897705,0.46417418122291565,0.94,0.85,0.0001
1449,0.3737494945526123,0.46417468786239624,0.94,0.85,0.0001
1450,0.37374913692474365,0.46418190002441406,0.94,0.85,0.0001
1451,0.37374863028526306,0.4641769826412201,0.94,0.85,0.0001
1452,0.37374818325042725,0.46416646242141724,0.94,0.85,0.0001
1453,0.37374770641326904,0.46414807438850403,0.94,0.85,0.0001
1454,0.3737472593784332,0.46413856744766235,0.94,0.85,0.0001
1455,0.3737468719482422,0.4641275107860565,0.94,0.85,0.0001
1456,0.37374648451805115,0.464115709066391,0.94,0.85,0.0001
1457,0.37374600768089294,0.4641193747520447,0.94,0.85,0.0001
1458,0.37374553084373474,0.4641113579273224,0.94,0.85,0.0001
1459,0.3737451136112213,0.4641125500202179,0.94,0.85,0.0001
1460,0.3737446665763855,0.464116632938385,0.94,0.85,0.0001
1461,0.3737441897392273,0.4641253352165222,0.94,0.85,0.0001
1462,0.37374386191368103,0.4641352891921997,0.94,0.85,0.0001
1463,0.37374332547187805,0.4641142189502716,0.94,0.85,0.0001
1464,0.3737429082393646,0.4641128182411194,0.94,0.85,0.0001
1465,0.37374240159988403,0.46411406993865967,0.94,0.85,0.0001
1466,0.373742014169693,0.46410977840423584,0.94,0.85,0.0001
1467,0.37374159693717957,0.46410900354385376,0.94,0.85,0.0001
1468,0.37374114990234375,0.46409714221954346,0.94,0.85,0.0001
1469,0.3737407624721527,0.46407341957092285,0.94,0.85,0.0001
1470,0.3737402856349945,0.46406757831573486,0.94,0.85,0.0001
1471,0.37373989820480347,0.46405380964279175,0.94,0.85,0.0001
1472,0.37373948097229004,0.46404552459716797,0.94,0.85,0.0001
1473,0.37373897433280945,0.4640519618988037,0.94,0.85,0.0001
1474,0.373738557100296,0.46406564116477966,0.94,0.85,0.0001
1475,0.3737381100654602,0.46407875418663025,0.94,0.85,0.0001
1476,0.37373772263526917,0.4640786051750183,0.94,0.85,0.0001
1477,0.37373730540275574,0.4640776813030243,0.94,0.85,0.0001
1478,0.37373679876327515,0.4640713930130005,0.94,0.85,0.0001
1479,0.3737364113330841,0.464049369096756,0.94,0.85,0.0001
1480,0.3737359642982483,0.46404603123664856,0.94,0.85,0.0001
1481,0.37373557686805725,0.46403512358665466,0.94,0.85,0.0001
1482,0.37373512983322144,0.4640333950519562,0.94,0.85,0.0001
1483,0.37373465299606323,0.4640320837497711,0.94,0.85,0.0001
1484,0.3737342953681946,0.4640343487262726,0.94,0.85,0.0001
1485,0.373733788728714,0.46401917934417725,0.94,0.85,0.0001
1486,0.37373340129852295,0.4640248119831085,0.94,0.85,0.0001
1487,0.37373292446136475,0.4640279710292816,0.94,0.85,0.0001
1488,0.3737325668334961,0.4640430808067322,0.94,0.85,0.0001
1489,0.3737321197986603,0.4640355408191681,0.94,0.85,0.0001
1490,0.37373170256614685,0.46402499079704285,0.94,0.85,0.0001
1491,0.37373125553131104,0.46401339769363403,0.94,0.85,0.0001
1492,0.3737308084964752,0.4640018343925476,0.94,0.85,0.0001
1493,0.3737304210662842,0.46399253606796265,0.94,0.85,0.0001
1494,0.373729944229126,0.46398377418518066,0.94,0.85,0.0001
1495,0.37372952699661255,0.4639882743358612,0.94,0.85,0.0001
1496,0.3737291097640991,0.4639805853366852,0.94,0.85,0.0001
1497,0.3737286627292633,0.4639877378940582,0.94,0.85,0.0001
1498,0.3737282454967499,0.46399617195129395,0.94,0.85,0.0001
1499,0.3737278878688812,0.4640047550201416,0.94,0.85,0.0001
1500,0.373727411031723,0.4640038013458252,0.94,0.85,0.0001
1501,0.373727023601532,0.463988721370697,0.94,0.85,0.0001
1502,0.3737265467643738,0.46398067474365234,0.94,0.85,0.0001
1503,0.3737260699272156,0.46396148204803467,0.94,0.85,0.0001
1504,0.3737257421016693,0.4639398157596588,0.94,0.85,0.0001
1505,0.3737253248691559,0.46393662691116333,0.94,0.85,0.0001
1506,0.3737248480319977,0.46393656730651855,0.94,0.85,0.0001
1507,0.37372443079948425,0.46394452452659607,0.94,0.85,0.0001
1508,0.3737240731716156,0.4639521837234497,0.94,0.85,0.0001
1509,0.3737235963344574,0.4639706015586853,0.94,0.85,0.0001
1510,0.37372320890426636,0.4639725387096405,0.94,0.85,0.0001
1511,0.37372279167175293,0.4639587104320526,0.94,0.85,0.0001
1512,0.3737223446369171,0.46395522356033325,0.94,0.85,0.0001
1513,0.3737219572067261,0.4639274477958679,0.94,0.85,0.0001
1514,0.37372156977653503,0.4639083743095398,0.94,0.85,0.0001
1515,0.3737211227416992,0.463891863822937,0.94,0.85,0.0001
1516,0.3737207353115082,0.46389666199684143,0.94,0.85,0.0001
1517,0.37372031807899475,0.4639069736003876,0.94,0.85,0.0001
1518,0.3737199008464813,0.46391674876213074,0.94,0.85,0.0001
1519,0.3737194836139679,0.4639202058315277,0.94,0.85,0.0001
1520,0.3737190365791321,0.46390578150749207,0.94,0.85,0.0001
1521,0.37371861934661865,0.46391093730926514,0.94,0.85,0.0001
1522,0.37371817231178284,0.46391141414642334,0.94,0.85,0.0001
1523,0.3737178444862366,0.4639005661010742,0.94,0.85,0.0001
1524,0.373717337846756,0.4638933837413788,0.94,0.85,0.0001
1525,0.37371695041656494,0.4638753831386566,0.94,0.85,0.0001
1526,0.3737165927886963,0.46387001872062683,0.94,0.85,0.0001
1527,0.3737161159515381,0.4638740122318268,0.94,0.85,0.0001
1528,0.37371566891670227,0.46387889981269836,0.94,0.85,0.0001
1529,0.37371528148651123,0.46388521790504456,0.94,0.85,0.0001
1530,0.3737148344516754,0.46387553215026855,0.94,0.85,0.0001
1531,0.3737144470214844,0.46386978030204773,0.94,0.85,0.0001
1532,0.37371399998664856,0.4638519287109375,0.94,0.85,0.0001
1533,0.37371358275413513,0.463847279548645,0.94,0.85,0.0001
1534,0.3737131357192993,0.46383512020111084,0.94,0.85,0.0001
1535,0.3737127184867859,0.46383029222488403,0.94,0.85,0.0001
1536,0.37371236085891724,0.46384352445602417,0.94,0.85,0.0001
1537,0.3737119734287262,0.4638485610485077,0.94,0.85,0.0001
1538,0.373711496591568,0.46384578943252563,0.94,0.85,0.0001
1539,0.37371113896369934,0.46384140849113464,0.94,0.85,0.0001
1540,0.3737107217311859,0.4638402462005615,0.94,0.85,0.0001
1541,0.3737103343009949,0.46383345127105713,0.94,0.85,0.0001
1542,0.37370991706848145,0.463826447725296,0.94,0.85,0.0001
1543,0.373709499835968,0.46381470561027527,0.94,0.85,0.0001
1544,0.37370914220809937,0.46380725502967834,0.94,0.85,0.0001
1545,0.37370869517326355,0.4637870490550995,0.94,0.85,0.0001
1546,0.3737082779407501,0.4637719690799713,0.94,0.85,0.0001
1547,0.3737078905105591,0.4637775123119354,0.94,0.85,0.0001
1548,0.37370747327804565,0.4638011157512665,0.94,0.85,0.0001
1549,0.3737070560455322,0.4638154208660126,0.94,0.85,0.0001
1550,0.3737066686153412,0.46381476521492004,0.94,0.85,0.0001
1551,0.37370628118515015,0.46379199624061584,0.94,0.85,0.0001
1552,0.37370577454566956,0.46378955245018005,0.94,0.85,0.0001
1553,0.3737054169178009,0.46377453207969666,0.94,0.85,0.0001
1554,0.3737049400806427,0.46376341581344604,0.94,0.85,0.0001
1555,0.37370461225509644,0.4637407660484314,0.94,0.85,0.0001
1556,0.37370410561561584,0.46374285221099854,0.94,0.85,0.0001
1557,0.3737037181854248,0.4637446105480194,0.94,0.85,0.0001
1558,0.37370339035987854,0.4637328088283539,0.94,0.85,0.0001
1559,0.37370291352272034,0.4637392461299896,0.94,0.85,0.0001
1560,0.3737025856971741,0.46374616026878357,0.94,0.85,0.0001
1561,0.37370213866233826,0.4637637734413147,0.94,0.85,0.0001
1562,0.37370169162750244,0.4637662172317505,0.94,0.85,0.0001
1563,0.3737013339996338,0.4637507200241089,0.94,0.85,0.0001
1564,0.37370097637176514,0.4637427031993866,0.94,0.85,0.0001
1565,0.3737005293369293,0.4637335538864136,0.94,0.85,0.0001
1566,0.37370023131370544,0.4637237787246704,0.94,0.85,0.0001
1567,0.3736998438835144,0.46371933817863464,0.94,0.85,0.0001
1568,0.3736993670463562,0.4637224078178406,0.94,0.85,0.0001
1569,0.37369903922080994,0.46371737122535706,0.94,0.85,0.0001
1570,0.3736986219882965,0.4637055993080139,0.94,0.85,0.0001
1571,0.3736982047557831,0.4636974036693573,0.94,0.85,0.0001
1572,0.37369784712791443,0.46370160579681396,0.94,0.85,0.0001
1573,0.373697429895401,0.4636930823326111,0.94,0.85,0.0001
1574,0.37369704246520996,0.4636996388435364,0.94,0.85,0.0001
1575,0.37369662523269653,0.4637002646923065,0.94,0.85,0.0001
1576,0.37369629740715027,0.46370524168014526,0.94,0.85,0.0001
1577,0.37369582056999207,0.4637065529823303,0.94,0.85,0.0001
1578,0.3736954927444458,0.46370264887809753,0.94,0.85,0.0001
1579,0.3736950159072876,0.46369728446006775,0.94,0.85,0.0001
1580,0.3736947178840637,0.46369388699531555,0.94,0.85,0.0001
1581,0.3736943006515503,0.46368494629859924,0.94,0.85,0.0001
1582,0.37369391322135925,0.46367499232292175,0.94,0.85,0.0001
1583,0.3736935555934906,0.4636684060096741,0.94,0.85,0.0001
1584,0.37369319796562195,0.46366119384765625,0.94,0.85,0.0001
1585,0.3736927807331085,0.46365994215011597,0.94,0.85,0.0001
1586,0.3736923336982727,0.46366190910339355,0.94,0.85,0.0001
1587,0.37369197607040405,0.4636692702770233,0.94,0.85,0.0001
1588,0.3736915588378906,0.4636625349521637,0.94,0.85,0.0001
1589,0.3736911118030548,0.46365872025489807,0.94,0.85,0.0001
1590,0.37369075417518616,0.4636518955230713,0.94,0.85,0.0001
1591,0.3736903667449951,0.46364903450012207,0.94,0.85,0.0001
1592,0.37369006872177124,0.4636428952217102,0.94,0.85,0.0001
1593,0.37368956208229065,0.46364066004753113,0.94,0.85,0.0001
1594,0.373689204454422,0.46363112330436707,0.94,0.85,0.0001
1595,0.37368884682655334,0.4636257588863373,0.94,0.85,0.0001
1596,0.3736884593963623,0.4636245369911194,0.94,0.85,0.0001
1597,0.3736881613731384,0.4636140465736389,0.94,0.85,0.0001
1598,0.37368765473365784,0.46361950039863586,0.94,0.85,0.0001
1599,0.3736872971057892,0.46362069249153137,0.94,0.85,0.0001
1600,0.37368690967559814,0.46362194418907166,0.94,0.85,0.0001
1601,0.3736864924430847,0.46362483501434326,0.94,0.85,0.0001
1602,0.3736861050128937,0.46362340450286865,0.94,0.85,0.0001
1603,0.37368571758270264,0.46361541748046875,0.94,0.85,0.0001
1604,0.37368538975715637,0.46360915899276733,0.94,0.85,0.0001
1605,0.37368497252464294,0.46357735991477966,0.94,0.85,0.0001
1606,0.3736845850944519,0.46358150243759155,0.94,0.85,0.0001
1607,0.37368419766426086,0.4635748267173767,0.94,0.85,0.0001
1608,0.3736838102340698,0.4635778069496155,0.94,0.85,0.0001
1609,0.3736834228038788,0.463565468788147,0.94,0.85,0.0001
1610,0.37368306517601013,0.46357467770576477,0.94,0.85,0.0001
1611,0.3736826777458191,0.46356430649757385,0.94,0.85,0.0001
1612,0.3736822009086609,0.46356621384620667,0.94,0.85,0.0001
1613,0.37368184328079224,0.46356910467147827,0.94,0.85,0.0001
1614,0.3736814558506012,0.4635654091835022,0.94,0.85,0.0001
1615,0.37368109822273254,0.4635598659515381,0.94,0.85,0.0001
1616,0.3736807107925415,0.4635485112667084,0.94,0.85,0.0001
1617,0.3736802935600281,0.4635257422924042,0.94,0.85,0.0001
1618,0.3736799359321594,0.4635040760040283,0.94,0.85,0.0001
1619,0.37367942929267883,0.46349236369132996,0.94,0.85,0.0001
1620,0.37367916107177734,0.46349942684173584,0.94,0.85,0.0001
1621,0.37367871403694153,0.4634935259819031,0.94,0.85,0.0001
1622,0.3736782968044281,0.46350738406181335,0.94,0.85,0.0001
1623,0.37367793917655945,0.46351557970046997,0.94,0.85,0.0001
1624,0.3736775517463684,0.463512122631073,0.94,0.85,0.0001
1625,0.37367725372314453,0.46352362632751465,0.94,0.85,0.0001
1626,0.3736768364906311,0.4635199308395386,0.94,0.85,0.0001
1627,0.3736763894557953,0.46350860595703125,0.94,0.85,0.0001
1628,0.37367600202560425,0.4634876251220703,0.94,0.85,0.0001
1629,0.37367570400238037,0.46346497535705566,0.94,0.85,0.0001
1630,0.3736751973628998,0.4634416699409485,0.94,0.85,0.0001
1631,0.3736748993396759,0.46343326568603516,0.94,0.85,0.0001
1632,0.3736744821071625,0.4634358882904053,0.94,0.85,0.0001
1633,0.373674213886261,0.4634433686733246,0.94,0.85,0.0001
1634,0.37367379665374756,0.4634566009044647,0.94,0.85,0.0001
1635,0.3736734092235565,0.4634690582752228,0.94,0.85,0.0001
1636,0.3736730217933655,0.46346473693847656,0.94,0.85,0.0001
1637,0.3736727237701416,0.46346116065979004,0.94,0.85,0.0001
1638,0.37367233633995056,0.4634574055671692,0.94,0.85,0.0001
1639,0.37367191910743713,0.46343860030174255,0.94,0.85,0.0001
1640,0.37367162108421326,0.46342363953590393,0.94,0.85,0.0001
1641,0.37367114424705505,0.46340811252593994,0.94,0.85,0.0001
1642,0.3736708164215088,0.4634098410606384,0.94,0.85,0.0001
1643,0.37367042899131775,0.463423490524292,0.94,0.85,0.0001
1644,0.3736700415611267,0.46342355012893677,0.94,0.85,0.0001
1645,0.37366965413093567,0.4634193778038025,0.94,0.85,0.0001
1646,0.37366926670074463,0.4634135365486145,0.94,0.85,0.0001
1647,0.37366893887519836,0.4634068012237549,0.94,0.85,0.0001
1648,0.3736685812473297,0.4634033143520355,0.94,0.85,0.0001
1649,0.3736681044101715,0.4633922874927521,0.94,0.85,0.0001
1650,0.37366780638694763,0.4633881449699402,0.94,0.85,0.0001
1651,0.3736674189567566,0.4633842408657074,0.94,0.85,0.0001
1652,0.3736671209335327,0.46338096261024475,0.94,0.85,0.0001
1653,0.3736666440963745,0.46337395906448364,0.94,0.85,0.0001
1654,0.37366631627082825,0.4633741080760956,0.94,0.85,0.0001
1655,0.373665988445282,0.4633748233318329,0.94,0.85,0.0001
1656,0.3736656606197357,0.463373601436615,0.94,0.85,0.0001
1657,0.3736652433872223,0.46337947249412537,0.94,0.85,0.0001
1658,0.37366485595703125,0.4633779227733612,0.94,0.85,0.0001
1659,0.3736644685268402,0.46337267756462097,0.94,0.85,0.0001
1660,0.37366417050361633,0.4633602797985077,0.94,0.85,0.0001
1661,0.3736637532711029,0.463369756937027,0.94,0.85,0.0001
1662,0.37366339564323425,0.4633563756942749,0.94,0.85,0.0001
1663,0.3736630976200104,0.4633285105228424,0.94,0.85,0.0001
1664,0.37366265058517456,0.46332505345344543,0.94,0.85,0.0001
1665,0.3736623525619507,0.4632963240146637,0.94,0.85,0.0001
1666,0.37366196513175964,0.4632996618747711,0.94,0.85,0.0001
1667,0.3736615777015686,0.4633072316646576,0.94,0.85,0.0001
1668,0.3736612796783447,0.4633174538612366,0.94,0.85,0.0001
1669,0.3736608624458313,0.46332839131355286,0.94,0.85,0.0001
1670,0.37366047501564026,0.46333086490631104,0.94,0.85,0.0001
1671,0.3736601769924164,0.46333253383636475,0.94,0.85,0.0001
1672,0.37365972995758057,0.4633333086967468,0.94,0.85,0.0001
1673,0.3736594021320343,0.46331873536109924,0.94,0.85,0.0001
1674,0.37365901470184326,0.4632978141307831,0.94,0.85,0.0001
1675,0.373658686876297,0.46328479051589966,0.94,0.85,0.0001
1676,0.37365832924842834,0.46326732635498047,0.94,0.85,0.0001
1677,0.37365803122520447,0.46325886249542236,0.94,0.85,0.0001
1678,0.37365761399269104,0.4632548987865448,0.94,0.85,0.0001
1679,0.3736572265625,0.46327683329582214,0.94,0.85,0.0001
1680,0.3736568093299866,0.46327710151672363,0.94,0.85,0.0001
1681,0.3736564517021179,0.46325141191482544,0.94,0.85,0.0001
1682,0.3736560344696045,0.4632527232170105,0.94,0.85,0.0001
1683,0.3736557066440582,0.46325987577438354,0.94,0.85,0.0001
1684,0.37365543842315674,0.4632686674594879,0.94,0.85,0.0001
1685,0.3736550211906433,0.46326157450675964,0.94,0.85,0.0001
1686,0.37365472316741943,0.4632607400417328,0.94,0.85,0.0001
1687,0.3736543655395508,0.4632244408130646,0.94,0.85,0.0001
1688,0.3736538589000702,0.4632239043712616,0.94,0.85,0.0001
1689,0.37365350127220154,0.4632369577884674,0.94,0.85,0.0001
1690,0.3736531734466553,0.4632244408130646,0.94,0.85,0.0001
1691,0.3736529052257538,0.4632178544998169,0.94,0.85,0.0001
1692,0.37365248799324036,0.46321117877960205,0.94,0.85,0.0001
1693,0.3736521601676941,0.46320274472236633,0.94,0.85,0.0001
1694,0.37365177273750305,0.46318504214286804,0.94,0.85,0.0001
1695,0.3736514151096344,0.46318426728248596,0.94,0.85,0.0001
1696,0.37365105748176575,0.46317917108535767,0.94,0.85,0.0001
1697,0.3736506998538971,0.4631941616535187,0.94,0.85,0.0001
1698,0.37365037202835083,0.4631863832473755,0.94,0.85,0.0001
1699,0.3736499845981598,0.46319374442100525,0.94,0.85,0.0001
1700,0.37364962697029114,0.4631844460964203,0.94,0.85,0.0001
1701,0.3736491799354553,0.46318426728248596,0.94,0.85,0.0001
1702,0.37364891171455383,0.46317756175994873,0.94,0.85,0.0001
1703,0.3736484944820404,0.46313685178756714,0.94,0.85,0.0001
1704,0.37364813685417175,0.4631330072879791,0.94,0.85,0.0001
1705,0.3736478090286255,0.46313270926475525,0.94,0.85,0.0001
1706,0.37364745140075684,0.46313029527664185,0.94,0.85,0.0001
1707,0.37364715337753296,0.46312835812568665,0.94,0.85,0.0001
1708,0.37364673614501953,0.4631310701370239,0.94,0.85,0.0001
1709,0.37364643812179565,0.4631410837173462,0.94,0.85,0.0001
1710,0.373646080493927,0.46313586831092834,0.94,0.85,0.0001
1711,0.37364569306373596,0.4631286561489105,0.94,0.85,0.0001
1712,0.3736453652381897,0.463105708360672,0.94,0.85,0.0001
1713,0.3736449182033539,0.46309661865234375,0.94,0.85,0.0001
1714,0.3736445903778076,0.46308448910713196,0.94,0.85,0.0001
1715,0.37364426255226135,0.46309569478034973,0.94,0.85,0.0001
1716,0.3736438751220703,0.4630986750125885,0.94,0.85,0.0001
1717,0.37364351749420166,0.46309220790863037,0.94,0.85,0.0001
1718,0.3736431896686554,0.46308985352516174,0.94,0.85,0.0001
1719,0.37364283204078674,0.46308621764183044,0.94,0.85,0.0001
1720,0.3736424744129181,0.46306800842285156,0.94,0.85,0.0001
1721,0.3736421465873718,0.4630628228187561,0.94,0.85,0.0001
1722,0.37364181876182556,0.4630538821220398,0.94,0.85,0.0001
1723,0.3736414611339569,0.46303996443748474,0.94,0.85,0.0001
1724,0.37364110350608826,0.4630279541015625,0.94,0.85,0.0001
1725,0.3736407458782196,0.4630420207977295,0.94,0.85,0.0001
1726,0.37364041805267334,0.46304625272750854,0.94,0.85,0.0001
1727,0.3736400902271271,0.4630504250526428,0.94,0.85,0.0001
1728,0.37363967299461365,0.4630540609359741,0.94,0.85,0.0001
1729,0.3736393451690674,0.46305331587791443,0.94,0.85,0.0001
1730,0.37363895773887634,0.463038831949234,0.94,0.85,0.0001
1731,0.37363865971565247,0.4630335569381714,0.94,0.85,0.0001
1732,0.3736383318901062,0.463032603263855,0.94,0.85,0.0001
1733,0.37363797426223755,0.46302253007888794,0.94,0.85,0.0001
1734,0.3736376166343689,0.463009238243103,0.94,0.85,0.0001
1735,0.373637318611145,0.4629998803138733,0.94,0.85,0.0001
1736,0.373636931180954,0.46299052238464355,0.94,0.85,0.0001
1737,0.3736366331577301,0.46297699213027954,0.94,0.85,0.0001
1738,0.37363627552986145,0.46298152208328247,0.94,0.85,0.0001
1739,0.3736359775066376,0.4629877805709839,0.94,0.85,0.0001
1740,0.3736356496810913,0.46299389004707336,0.94,0.85,0.0001
1741,0.37363526225090027,0.4630013406276703,0.94,0.85,0.0001
1742,0.3736349046230316,0.46299922466278076,0.94,0.85,0.0001
1743,0.3736345171928406,0.4629899263381958,0.94,0.85,0.0001
1744,0.3736342489719391,0.46298447251319885,0.94,0.85,0.0001
1745,0.3736339211463928,0.46297240257263184,0.94,0.85,0.0001
1746,0.37363362312316895,0.4629676938056946,0.94,0.85,0.0001
1747,0.37363314628601074,0.462950199842453,0.94,0.85,0.0001
1748,0.3736328184604645,0.4629442095756531,0.94,0.85,0.0001
1749,0.37363243103027344,0.46294358372688293,0.94,0.85,0.0001
1750,0.37363216280937195,0.4629567265510559,0.94,0.85,0.0001
1751,0.3736318349838257,0.46294403076171875,0.94,0.85,0.0001
1752,0.3736315071582794,0.4629395604133606,0.94,0.85,0.0001
1753,0.3736311197280884,0.462937593460083,0.94,0.85,0.0001
1754,0.3736307621002197,0.46292564272880554,0.94,0.85,0.0001
1755,0.3736304044723511,0.46291878819465637,0.94,0.85,0.0001
1756,0.3736301362514496,0.4629078209400177,0.94,0.85,0.0001
1757,0.3736298084259033,0.46289965510368347,0.94,0.85,0.0001
1758,0.37362945079803467,0.4628879427909851,0.94,0.85,0.0001
1759,0.37362900376319885,0.4628906548023224,0.94,0.85,0.0001
1760,0.373628705739975,0.46288394927978516,0.94,0.85,0.0001
1761,0.3736283481121063,0.4628872275352478,0.94,0.85,0.0001
1762,0.37362805008888245,0.4628881812095642,0.94,0.85,0.0001
1763,0.3736276924610138,0.4628891050815582,0.94,0.85,0.0001
1764,0.37362736463546753,0.46288812160491943,0.94,0.85,0.0001
1765,0.37362706661224365,0.4628794193267822,0.94,0.85,0.0001
1766,0.373626708984375,0.46287456154823303,0.94,0.85,0.0001
1767,0.37362632155418396,0.4628768265247345,0.94,0.85,0.0001
1768,0.3736259341239929,0.4628576636314392,0.94,0.85,0.0001
1769,0.37362566590309143,0.46284011006355286,0.94,0.85,0.0001
1770,0.3736253082752228,0.46281254291534424,0.94,0.85,0.0001
1771,0.3736249506473541,0.46281078457832336,0.94,0.85,0.0001
1772,0.37362465262413025,0.4628068804740906,0.94,0.85,0.0001
