,train loss,val loss,train acc,val acc,lr
0,0.6892670392990112,0.6865532398223877,0.55,0.66,0.001
1,0.6820580959320068,0.6820245981216431,0.7,0.67,0.001
2,0.6748444437980652,0.6771670579910278,0.71,0.7,0.001
3,0.6672036051750183,0.6715449690818787,0.7,0.69,0.001
4,0.6585440635681152,0.664665699005127,0.73,0.7,0.001
5,0.6481481790542603,0.6559639573097229,0.76,0.71,0.001
6,0.6351340413093567,0.6448227763175964,0.78,0.68,0.001
7,0.6184433698654175,0.6308653354644775,0.76,0.66,0.001
8,0.5971753001213074,0.6154229044914246,0.74,0.65,0.001
9,0.5726779699325562,0.6057758927345276,0.73,0.66,0.001
10,0.555305540561676,0.6137531995773315,0.72,0.66,0.001
11,0.5561097860336304,0.5840075612068176,0.72,0.72,0.001
12,0.5317581295967102,0.5729749202728271,0.77,0.74,0.001
13,0.5195680260658264,0.5728862881660461,0.81,0.72,0.001
14,0.5184186697006226,0.5682802200317383,0.79,0.71,0.001
15,0.5153815746307373,0.5664284229278564,0.8,0.72,0.001
16,0.515908420085907,0.566652774810791,0.8,0.71,0.001
17,0.5139042735099792,0.5658141374588013,0.8,0.72,0.001
18,0.5116075873374939,0.5617541670799255,0.78,0.73,0.001
19,0.5063368082046509,0.5560911893844604,0.78,0.74,0.001
20,0.4994276165962219,0.551084041595459,0.8,0.74,0.001
21,0.4950939416885376,0.5470305681228638,0.82,0.74,0.001
22,0.49409279227256775,0.5441814064979553,0.83,0.76,0.001
23,0.49441444873809814,0.5455564856529236,0.82,0.76,0.001
24,0.49332335591316223,0.5500426292419434,0.82,0.74,0.001
25,0.49013713002204895,0.5560199022293091,0.83,0.74,0.001
26,0.48563286662101746,0.5588275194168091,0.83,0.75,0.001
27,0.48134735226631165,0.5601226091384888,0.84,0.73,0.001
28,0.4780460298061371,0.5642202496528625,0.84,0.73,0.001
29,0.47758930921554565,0.5679084062576294,0.84,0.73,0.001
30,0.4782381057739258,0.5667688250541687,0.83,0.73,0.001
31,0.47700101137161255,0.5622273087501526,0.83,0.73,0.001
32,0.4739946722984314,0.5573153495788574,0.83,0.74,0.001
33,0.47225499153137207,0.5548269152641296,0.83,0.74,0.001
34,0.4712716042995453,0.5537878274917603,0.82,0.74,0.001
35,0.46794959902763367,0.5575498342514038,0.83,0.73,0.001
36,0.46377822756767273,0.5609367489814758,0.84,0.73,0.001
37,0.4636021852493286,0.558798611164093,0.84,0.73,0.001
38,0.4624097943305969,0.556792140007019,0.84,0.73,0.001
39,0.4600343406200409,0.555503249168396,0.84,0.73,0.001
40,0.45733678340911865,0.5487544536590576,0.84,0.74,0.001
41,0.45535919070243835,0.5499356985092163,0.84,0.73,0.001
42,0.4516156017780304,0.5490727424621582,0.85,0.74,0.001
43,0.4494248628616333,0.5481815338134766,0.85,0.74,0.001
44,0.4484168589115143,0.5498185157775879,0.88,0.74,0.001
45,0.44618552923202515,0.5432414412498474,0.87,0.76,0.001
46,0.44259753823280334,0.543358564376831,0.88,0.76,0.001
47,0.43993091583251953,0.5409262180328369,0.89,0.77,0.001
48,0.4387374818325043,0.544359564781189,0.89,0.77,0.001
49,0.44299203157424927,0.5358758568763733,0.87,0.77,0.001
50,0.43826282024383545,0.5519476532936096,0.88,0.77,0.001
51,0.4439593553543091,0.5480281710624695,0.86,0.76,0.001
52,0.4279552698135376,0.5268533825874329,0.91,0.8,0.001
53,0.47881343960762024,0.5534501075744629,0.83,0.73,0.001
54,0.44340988993644714,0.5381016731262207,0.86,0.77,0.001
55,0.4455808997154236,0.5502942800521851,0.86,0.76,0.001
56,0.46016600728034973,0.5417935848236084,0.83,0.75,0.001
57,0.4780033528804779,0.5403727889060974,0.83,0.75,0.001
58,0.47433003783226013,0.5489141345024109,0.83,0.76,0.001
59,0.4576587677001953,0.5441058874130249,0.85,0.75,0.001
60,0.45774176716804504,0.5411303639411926,0.85,0.77,0.001
61,0.4452425241470337,0.542862594127655,0.87,0.78,0.001
62,0.4458313286304474,0.5390983819961548,0.87,0.77,0.001
63,0.4360525906085968,0.5555983185768127,0.91,0.76,0.001
64,0.44471362233161926,0.5614789724349976,0.88,0.75,0.001
65,0.445992648601532,0.5639936327934265,0.88,0.73,0.001
66,0.4479822516441345,0.5640064477920532,0.88,0.75,0.001
67,0.45466458797454834,0.5503305196762085,0.87,0.73,0.001
68,0.44268304109573364,0.5467418432235718,0.89,0.75,0.001
69,0.4346107840538025,0.5482256412506104,0.9,0.77,0.001
70,0.43463435769081116,0.5364390015602112,0.9,0.78,0.001
71,0.4735129177570343,0.5254173874855042,0.84,0.8,0.001
72,0.472947895526886,0.537016749382019,0.86,0.77,0.001
73,0.4474409818649292,0.5581343173980713,0.87,0.74,0.001
74,0.4537062346935272,0.5635965466499329,0.86,0.73,0.001
75,0.48570239543914795,0.5581914782524109,0.83,0.74,0.001
76,0.49669960141181946,0.5623190999031067,0.83,0.73,0.001
77,0.48542311787605286,0.5616001486778259,0.83,0.74,0.001
78,0.45729613304138184,0.5472227931022644,0.85,0.76,0.001
79,0.45507562160491943,0.5404430627822876,0.86,0.76,0.001
80,0.45055878162384033,0.5289833545684814,0.88,0.79,0.001
81,0.46081459522247314,0.5288230776786804,0.87,0.78,0.001
82,0.4592920243740082,0.5378737449645996,0.86,0.78,0.001
83,0.43727028369903564,0.54637211561203,0.89,0.76,0.001
84,0.43705639243125916,0.5673929452896118,0.89,0.75,0.001
85,0.47378823161125183,0.5662087202072144,0.83,0.75,0.001
86,0.46528851985931396,0.5460616946220398,0.84,0.76,0.001
87,0.4311617910861969,0.5277409553527832,0.9,0.78,0.001
88,0.4385674297809601,0.5292342305183411,0.89,0.78,0.001
89,0.4573195278644562,0.5274897813796997,0.86,0.77,0.001
90,0.4468739330768585,0.545046865940094,0.87,0.77,0.001
91,0.4251800775527954,0.5616823434829712,0.91,0.75,0.001
92,0.4588698446750641,0.5537826418876648,0.86,0.77,0.001
93,0.4271174669265747,0.5439014434814453,0.91,0.77,0.001
94,0.415749192237854,0.527733325958252,0.92,0.77,0.001
95,0.4210059642791748,0.5280832648277283,0.9,0.79,0.001
96,0.4366687536239624,0.5244446396827698,0.89,0.78,0.001
97,0.4392034113407135,0.5191370844841003,0.89,0.79,0.001
98,0.4393049478530884,0.5183651447296143,0.89,0.78,0.001
99,0.4214012920856476,0.5325908660888672,0.9,0.77,0.001
100,0.4122174382209778,0.5449101328849792,0.93,0.77,0.001
101,0.41909873485565186,0.5495479106903076,0.91,0.77,0.001
102,0.42599785327911377,0.5438491702079773,0.91,0.77,0.001
103,0.4196414053440094,0.5387420654296875,0.91,0.78,0.001
104,0.41467535495758057,0.5273892879486084,0.91,0.8,0.001
105,0.41234028339385986,0.519585371017456,0.92,0.79,0.001
106,0.4171322286128998,0.5106508135795593,0.9,0.8,0.001
107,0.41817420721054077,0.5272411704063416,0.9,0.77,0.001
108,0.40762364864349365,0.5374377369880676,0.92,0.78,0.001
109,0.412413090467453,0.5467559695243835,0.92,0.77,0.001
110,0.4168778359889984,0.5466369390487671,0.92,0.77,0.001
111,0.4168543219566345,0.53594970703125,0.92,0.78,0.001
112,0.41097670793533325,0.5333377718925476,0.92,0.78,0.001
113,0.41031724214553833,0.5232618451118469,0.92,0.78,0.001
114,0.40617817640304565,0.512479305267334,0.91,0.81,0.001
115,0.4100726842880249,0.515840470790863,0.92,0.79,0.001
116,0.40982624888420105,0.524300754070282,0.92,0.78,0.001
117,0.40490448474884033,0.5297248363494873,0.92,0.77,0.001
118,0.40678736567497253,0.5352492332458496,0.92,0.78,0.001
119,0.40723761916160583,0.5359766483306885,0.92,0.78,0.001
120,0.4082004427909851,0.535988450050354,0.92,0.78,0.001
121,0.40787968039512634,0.5355095267295837,0.92,0.78,0.001
122,0.40634453296661377,0.5307950377464294,0.92,0.77,0.001
123,0.4047977924346924,0.5269162058830261,0.92,0.78,0.001
124,0.40175697207450867,0.5254438519477844,0.92,0.78,0.001
125,0.4037446081638336,0.525658369064331,0.92,0.78,0.001
126,0.40286919474601746,0.5277720093727112,0.92,0.78,0.001
127,0.39981117844581604,0.5271804332733154,0.93,0.78,0.001
128,0.40178975462913513,0.5271689295768738,0.92,0.78,0.001
129,0.40017464756965637,0.5272411704063416,0.92,0.78,0.001
130,0.3993825614452362,0.5241557955741882,0.92,0.78,0.001
131,0.4011366367340088,0.5263570547103882,0.92,0.78,0.001
132,0.3976774215698242,0.5364709496498108,0.92,0.78,0.001
133,0.4001524746417999,0.5355579257011414,0.92,0.79,0.001
134,0.3954460620880127,0.5241762399673462,0.93,0.78,0.001
135,0.3969111144542694,0.5256965756416321,0.92,0.78,0.001
136,0.39473357796669006,0.527047336101532,0.93,0.79,0.001
137,0.3964390456676483,0.5270131826400757,0.92,0.78,0.001
138,0.3933444321155548,0.5237159132957458,0.93,0.78,0.001
139,0.3954430818557739,0.5265939235687256,0.93,0.78,0.001
140,0.39312538504600525,0.5269802212715149,0.93,0.79,0.001
141,0.39492112398147583,0.5257250070571899,0.92,0.78,0.001
142,0.3925528824329376,0.5232200622558594,0.93,0.78,0.001
143,0.3932296335697174,0.5329549312591553,0.93,0.79,0.001
144,0.39148640632629395,0.5357485413551331,0.93,0.78,0.001
145,0.39299464225769043,0.526425838470459,0.93,0.79,0.001
146,0.3919279873371124,0.5242785811424255,0.93,0.78,0.001
147,0.39087677001953125,0.5147465467453003,0.93,0.8,0.001
148,0.39899566769599915,0.5234511494636536,0.92,0.78,0.001
149,0.4329689145088196,0.5361522436141968,0.88,0.78,0.001
150,0.40182122588157654,0.5507934093475342,0.92,0.75,0.001
151,0.4230743646621704,0.5300544500350952,0.89,0.79,0.001
152,0.39583075046539307,0.5261242985725403,0.93,0.78,0.001
153,0.4068900942802429,0.5260207056999207,0.91,0.79,0.001
154,0.41362854838371277,0.5576786398887634,0.91,0.75,0.001
155,0.45077988505363464,0.5774833559989929,0.85,0.72,0.001
156,0.5197298526763916,0.5268022418022156,0.78,0.77,0.001
157,0.40208014845848083,0.5366151332855225,0.91,0.77,0.001
158,0.43953728675842285,0.5487962961196899,0.89,0.76,0.001
159,0.4659615457057953,0.5574586987495422,0.85,0.76,0.001
160,0.47195956110954285,0.5453341603279114,0.84,0.76,0.001
161,0.46380871534347534,0.5434827208518982,0.85,0.75,0.001
162,0.4969901144504547,0.5497080087661743,0.83,0.75,0.001
163,0.5062804222106934,0.5590225458145142,0.82,0.75,0.001
164,0.49634379148483276,0.5547964572906494,0.81,0.76,0.001
165,0.4969131350517273,0.5387968420982361,0.81,0.77,0.001
166,0.49204540252685547,0.5395964980125427,0.82,0.77,0.001
167,0.4845261871814728,0.5417948365211487,0.83,0.76,0.001
168,0.4995058476924896,0.5433307886123657,0.81,0.76,0.001
169,0.503516674041748,0.5490759611129761,0.8,0.75,0.001
170,0.4859117567539215,0.5308963060379028,0.83,0.77,0.001
171,0.4443638324737549,0.5320463180541992,0.88,0.78,0.001
172,0.44781163334846497,0.537015974521637,0.87,0.77,0.001
173,0.4482594430446625,0.5406347513198853,0.84,0.76,0.001
174,0.44485417008399963,0.5475220680236816,0.83,0.76,0.001
175,0.42272987961769104,0.5587469935417175,0.9,0.75,0.001
176,0.43425774574279785,0.5628883242607117,0.89,0.77,0.001
177,0.4677013158798218,0.5598733425140381,0.86,0.76,0.001
178,0.47144508361816406,0.5595135688781738,0.85,0.76,0.001
179,0.46683937311172485,0.5549423694610596,0.85,0.75,0.001
180,0.4515322744846344,0.5549810528755188,0.88,0.76,0.001
181,0.419467955827713,0.5458252429962158,0.91,0.76,0.001
182,0.4184192419052124,0.537954568862915,0.9,0.76,0.001
183,0.4293673634529114,0.5376648902893066,0.89,0.76,0.001
184,0.43155455589294434,0.5355120301246643,0.89,0.76,0.001
185,0.4305671453475952,0.5301042199134827,0.89,0.77,0.001
186,0.4303278625011444,0.5338891744613647,0.89,0.78,0.001
187,0.42196473479270935,0.5360895991325378,0.9,0.78,0.001
188,0.422031044960022,0.5406857132911682,0.9,0.79,0.001
189,0.4228697121143341,0.5407370924949646,0.9,0.79,0.001
190,0.42134857177734375,0.5453871488571167,0.91,0.78,0.001
191,0.4161209166049957,0.5416298508644104,0.91,0.77,0.001
192,0.4132956564426422,0.5391748547554016,0.91,0.76,0.001
193,0.4126374125480652,0.5407223105430603,0.91,0.76,0.001
194,0.414816677570343,0.5399388670921326,0.91,0.76,0.001
195,0.4132177233695984,0.5393169522285461,0.91,0.76,0.001
196,0.41264107823371887,0.5434281826019287,0.91,0.76,0.001
197,0.41256603598594666,0.5491468906402588,0.91,0.76,0.001
198,0.4129267632961273,0.5494271516799927,0.91,0.77,0.001
199,0.41344156861305237,0.5494140982627869,0.91,0.77,0.001
200,0.4134324789047241,0.5491304993629456,0.91,0.77,0.001
201,0.41233938932418823,0.547938346862793,0.91,0.76,0.001
202,0.4116114377975464,0.5411084294319153,0.91,0.77,0.001
203,0.41133514046669006,0.5379614233970642,0.91,0.77,0.001
204,0.41098564863204956,0.537045419216156,0.91,0.77,0.001
205,0.4105200171470642,0.5365493297576904,0.91,0.77,0.001
206,0.4101240634918213,0.5367189049720764,0.91,0.77,0.001
207,0.409778892993927,0.5383540391921997,0.91,0.78,0.001
208,0.40947869420051575,0.5407792925834656,0.91,0.77,0.001
209,0.4092295467853546,0.5419811010360718,0.91,0.77,0.001
210,0.4090254604816437,0.5421126484870911,0.91,0.77,0.001
211,0.4088433086872101,0.5417308211326599,0.91,0.77,0.001
212,0.4086419343948364,0.5407615303993225,0.91,0.77,0.001
213,0.40840423107147217,0.5384591221809387,0.91,0.77,0.001
214,0.4081624746322632,0.5352092385292053,0.91,0.78,0.001
215,0.4079466760158539,0.5333584547042847,0.91,0.78,0.001
216,0.4077652394771576,0.5326162576675415,0.91,0.78,0.001
217,0.40761080384254456,0.5319748520851135,0.91,0.78,0.001
218,0.40745821595191956,0.5309047698974609,0.91,0.78,0.001
219,0.40728136897087097,0.529163658618927,0.91,0.78,0.001
220,0.40708911418914795,0.5273378491401672,0.91,0.79,0.001
221,0.40691378712654114,0.5267468094825745,0.91,0.79,0.001
222,0.406770795583725,0.5269625186920166,0.91,0.79,0.001
223,0.40664589405059814,0.5264052152633667,0.91,0.79,0.001
224,0.4064992666244507,0.5249501466751099,0.91,0.79,0.001
225,0.40632832050323486,0.5238202810287476,0.91,0.79,0.001
226,0.4061758816242218,0.5233413577079773,0.91,0.79,0.001
227,0.406052827835083,0.5231208205223083,0.91,0.79,0.001
228,0.40592578053474426,0.5230352878570557,0.91,0.79,0.001
229,0.4057711064815521,0.5232784748077393,0.91,0.79,0.001
230,0.40562212467193604,0.5238597393035889,0.91,0.79,0.001
231,0.40550196170806885,0.5238864421844482,0.91,0.79,0.001
232,0.4053727388381958,0.5231149196624756,0.91,0.79,0.001
233,0.40521904826164246,0.5224998593330383,0.91,0.79,0.001
234,0.4050846993923187,0.5222353339195251,0.91,0.79,0.001
235,0.40496209263801575,0.5221627354621887,0.91,0.79,0.001
236,0.4048230051994324,0.5223082900047302,0.91,0.79,0.001
237,0.4046798646450043,0.5226746201515198,0.91,0.79,0.001
238,0.40455275774002075,0.522805392742157,0.91,0.79,0.001
239,0.4044266939163208,0.5223953723907471,0.91,0.79,0.001
240,0.40428847074508667,0.5219017267227173,0.91,0.79,0.001
241,0.4041557312011719,0.521622896194458,0.91,0.79,0.001
242,0.40403226017951965,0.5215235352516174,0.91,0.79,0.001
243,0.40390563011169434,0.5215756893157959,0.92,0.79,0.001
244,0.40377479791641235,0.5217825174331665,0.92,0.79,0.001
245,0.40364909172058105,0.521980345249176,0.92,0.79,0.001
246,0.4035291373729706,0.521885871887207,0.92,0.79,0.001
247,0.4034062325954437,0.5215502381324768,0.92,0.79,0.001
248,0.4032815992832184,0.5212512612342834,0.92,0.79,0.0007937005259840996
249,0.4031617343425751,0.5211213827133179,0.92,0.79,0.0007937005259840996
250,0.4030684530735016,0.521077036857605,0.92,0.79,0.0007937005259840996
251,0.40297427773475647,0.521104097366333,0.92,0.79,0.0007937005259840996
252,0.40287935733795166,0.5211828351020813,0.92,0.79,0.0007937005259840996
253,0.4027862846851349,0.5212521553039551,0.92,0.79,0.0007937005259840996
254,0.4026951193809509,0.5212289690971375,0.92,0.79,0.0007937005259840996
255,0.4026040732860565,0.5210975408554077,0.92,0.79,0.0007937005259840996
256,0.40251225233078003,0.5209280848503113,0.92,0.79,0.0007937005259840996
257,0.40242090821266174,0.5207908749580383,0.92,0.79,0.0007937005259840996
258,0.40233108401298523,0.5207056403160095,0.92,0.79,0.0007937005259840996
259,0.40224212408065796,0.5206630825996399,0.92,0.79,0.0007937005259840996
260,0.4021529257297516,0.5206509232521057,0.92,0.79,0.0007937005259840996
261,0.4020639657974243,0.5206550359725952,0.92,0.79,0.0007937005259840996
262,0.4019758701324463,0.520652711391449,0.92,0.79,0.0007937005259840996
263,0.4018886089324951,0.5206205248832703,0.92,0.79,0.0007937005259840996
264,0.4018018841743469,0.5205587148666382,0.92,0.79,0.0007937005259840996
265,0.4017149806022644,0.5204927325248718,0.92,0.79,0.0007937005259840996
266,0.4016284942626953,0.5204451084136963,0.92,0.79,0.0007937005259840996
267,0.40154290199279785,0.5204190015792847,0.92,0.79,0.0007937005259840996
268,0.401457816362381,0.5204066634178162,0.92,0.79,0.0007937005259840996
269,0.4013730585575104,0.5204013586044312,0.92,0.79,0.0007937005259840996
270,0.4012884497642517,0.5203999876976013,0.92,0.79,0.0007937005259840996
271,0.4012046158313751,0.5204011797904968,0.92,0.79,0.0007937005259840996
272,0.4011211693286896,0.5204055905342102,0.92,0.79,0.0007937005259840996
273,0.401038259267807,0.5204190015792847,0.92,0.79,0.0007937005259840996
274,0.40095534920692444,0.5204481482505798,0.92,0.79,0.0007937005259840996
275,0.4008728265762329,0.5204929113388062,0.92,0.79,0.0007937005259840996
276,0.4007910192012787,0.5205457210540771,0.92,0.79,0.0007937005259840996
277,0.4007093906402588,0.5205998420715332,0.92,0.79,0.0007937005259840996
278,0.4006279408931732,0.5206540822982788,0.92,0.79,0.0007937005259840996
279,0.4005468487739563,0.5207148194313049,0.92,0.79,0.0007937005259840996
280,0.4004661440849304,0.5207914710044861,0.92,0.79,0.0007937005259840996
281,0.4003857672214508,0.5208926200866699,0.92,0.79,0.0007937005259840996
282,0.4003056287765503,0.5210219025611877,0.92,0.79,0.0007937005259840996
283,0.40022554993629456,0.52117520570755,0.92,0.79,0.0007937005259840996
284,0.4001457095146179,0.5213420987129211,0.92,0.79,0.0007937005259840996
285,0.4000661075115204,0.5215120911598206,0.92,0.79,0.0007937005259840996
286,0.39998677372932434,0.5216805934906006,0.92,0.79,0.0007937005259840996
287,0.39990735054016113,0.5218518972396851,0.92,0.79,0.0007937005259840996
288,0.39982807636260986,0.5220364332199097,0.92,0.79,0.0007937005259840996
289,0.39974892139434814,0.5222441554069519,0.92,0.79,0.0007937005259840996
290,0.3996698260307312,0.522479236125946,0.92,0.79,0.0007937005259840996
291,0.3995906710624695,0.5227367281913757,0.92,0.78,0.0007937005259840996
292,0.3995114862918854,0.5230047106742859,0.92,0.78,0.0007937005259840996
293,0.39943215250968933,0.5232701897621155,0.92,0.78,0.0007937005259840996
294,0.3993527293205261,0.5235254168510437,0.92,0.78,0.0007937005259840996
295,0.399273157119751,0.5237706899642944,0.92,0.78,0.0007937005259840996
296,0.39919325709342957,0.5240119695663452,0.92,0.78,0.0007937005259840996
297,0.39911314845085144,0.5242565870285034,0.92,0.78,0.0007937005259840996
298,0.39903271198272705,0.5245077013969421,0.92,0.78,0.0007937005259840996
299,0.39895176887512207,0.524762749671936,0.92,0.78,0.0007937005259840996
300,0.3988703489303589,0.5250141024589539,0.92,0.78,0.0007937005259840996
301,0.398788183927536,0.5252535939216614,0.92,0.78,0.0007937005259840996
302,0.39870548248291016,0.5254755020141602,0.92,0.78,0.0007937005259840996
303,0.3986218273639679,0.5256796479225159,0.92,0.78,0.0007937005259840996
304,0.39853721857070923,0.525868833065033,0.92,0.78,0.0007937005259840996
305,0.3984515368938446,0.5260481238365173,0.92,0.78,0.0007937005259840996
306,0.3983646035194397,0.5262205004692078,0.92,0.78,0.0007937005259840996
307,0.39827609062194824,0.5263864994049072,0.92,0.78,0.0007937005259840996
308,0.39818572998046875,0.526543378829956,0.92,0.78,0.0007937005259840996
309,0.39809346199035645,0.5266879796981812,0.92,0.78,0.0007937005259840996
310,0.3979986906051636,0.5268179178237915,0.92,0.78,0.0007937005259840996
311,0.39790117740631104,0.5269327759742737,0.92,0.78,0.0007937005259840996
312,0.39780035614967346,0.5270342826843262,0.92,0.78,0.0007937005259840996
313,0.3976956307888031,0.5271249413490295,0.92,0.78,0.0007937005259840996
314,0.3975861370563507,0.527206540107727,0.92,0.78,0.0007937005259840996
315,0.3974708914756775,0.5272795557975769,0.92,0.78,0.0007937005259840996
316,0.397348552942276,0.5273424386978149,0.92,0.78,0.0007937005259840996
317,0.3972172141075134,0.5273928046226501,0.92,0.78,0.0007937005259840996
318,0.39707446098327637,0.5274291038513184,0.92,0.78,0.0007937005259840996
319,0.39691653847694397,0.5274500846862793,0.92,0.78,0.0007937005259840996
320,0.39673763513565063,0.5274555087089539,0.92,0.78,0.0007937005259840996
321,0.3965283930301666,0.527443528175354,0.92,0.78,0.0007937005259840996
322,0.3962722718715668,0.5274099707603455,0.92,0.78,0.0007937005259840996
323,0.3959367275238037,0.5273463726043701,0.92,0.78,0.0007937005259840996
324,0.3954528570175171,0.5272473692893982,0.92,0.78,0.0007937005259840996
325,0.3946700692176819,0.5271586775779724,0.92,0.78,0.0007937005259840996
326,0.3933398127555847,0.5270300507545471,0.92,0.78,0.0007937005259840996
327,0.39147940278053284,0.5254212021827698,0.92,0.78,0.0007937005259840996
328,0.38917553424835205,0.5214245915412903,0.93,0.78,0.0007937005259840996
329,0.38698387145996094,0.514225959777832,0.93,0.8,0.0007937005259840996
330,0.38542839884757996,0.5018355846405029,0.93,0.82,0.0007937005259840996
331,0.38433659076690674,0.5008952617645264,0.93,0.82,0.0007937005259840996
332,0.38342493772506714,0.49825677275657654,0.94,0.81,0.0007937005259840996
333,0.38264670968055725,0.48794203996658325,0.94,0.83,0.0007937005259840996
334,0.3821076452732086,0.4995456337928772,0.94,0.81,0.0007937005259840996
335,0.38144123554229736,0.4975806176662445,0.94,0.82,0.0007937005259840996
336,0.379898339509964,0.4990618824958801,0.94,0.81,0.0007937005259840996
337,0.3789583444595337,0.5018022060394287,0.94,0.81,0.0007937005259840996
338,0.3771226406097412,0.4873303472995758,0.95,0.82,0.0007937005259840996
339,0.375281423330307,0.48321884870529175,0.95,0.83,0.0007937005259840996
340,0.37576839327812195,0.49249979853630066,0.95,0.82,0.0007937005259840996
341,0.375577837228775,0.5059066414833069,0.95,0.8,0.0007937005259840996
342,0.3739321529865265,0.5063899755477905,0.95,0.8,0.0007937005259840996
343,0.375099778175354,0.4919709265232086,0.94,0.82,0.0007937005259840996
344,0.37157100439071655,0.4805070459842682,0.95,0.84,0.0007937005259840996
345,0.37053802609443665,0.4860852062702179,0.95,0.83,0.0007937005259840996
346,0.3677162230014801,0.48079153895378113,0.95,0.84,0.0007937005259840996
347,0.3785216212272644,0.5231168270111084,0.94,0.78,0.0007937005259840996
348,0.5062057375907898,0.547828733921051,0.79,0.78,0.0007937005259840996
349,0.5595386624336243,0.4843069911003113,0.72,0.83,0.0007937005259840996
350,0.41945186257362366,0.4874020516872406,0.89,0.82,0.0007937005259840996
351,0.43195560574531555,0.5359808206558228,0.87,0.77,0.0007937005259840996
352,0.4405723810195923,0.5426589250564575,0.87,0.76,0.0007937005259840996
353,0.4456705152988434,0.5634844303131104,0.86,0.73,0.0007937005259840996
354,0.45718279480934143,0.5545814633369446,0.85,0.75,0.0007937005259840996
355,0.4526413083076477,0.6081987619400024,0.86,0.69,0.0007937005259840996
356,0.47412994503974915,0.5419439077377319,0.85,0.76,0.0007937005259840996
357,0.42709022760391235,0.5555762052536011,0.88,0.76,0.0007937005259840996
358,0.44778022170066833,0.5469421148300171,0.86,0.77,0.0007937005259840996
359,0.4421509802341461,0.5607632994651794,0.88,0.74,0.0007937005259840996
360,0.4516529142856598,0.5526852607727051,0.86,0.76,0.0007937005259840996
361,0.4513285756111145,0.5426949858665466,0.86,0.77,0.0007937005259840996
362,0.44822171330451965,0.5404502749443054,0.87,0.78,0.0007937005259840996
363,0.45269063115119934,0.5385381579399109,0.86,0.77,0.0007937005259840996
364,0.44560733437538147,0.5446423888206482,0.87,0.76,0.0007937005259840996
365,0.4475126564502716,0.5236780047416687,0.87,0.79,0.0007937005259840996
366,0.4468955099582672,0.5120810270309448,0.87,0.8,0.0007937005259840996
367,0.44991257786750793,0.5153679847717285,0.87,0.79,0.0007937005259840996
368,0.45512187480926514,0.5139179825782776,0.86,0.8,0.0007937005259840996
369,0.4463214576244354,0.5266406536102295,0.87,0.79,0.0007937005259840996
370,0.44362500309944153,0.527530312538147,0.86,0.79,0.0007937005259840996
371,0.4362645447254181,0.5241990089416504,0.87,0.79,0.0007937005259840996
372,0.43228814005851746,0.5273151993751526,0.88,0.79,0.0007937005259840996
373,0.42774832248687744,0.5227088332176208,0.88,0.8,0.0007937005259840996
374,0.424657940864563,0.5242301821708679,0.89,0.77,0.0007937005259840996
375,0.42449256777763367,0.5274893641471863,0.89,0.77,0.0007937005259840996
376,0.42428314685821533,0.530216634273529,0.89,0.78,0.0007937005259840996
377,0.42337676882743835,0.5287177562713623,0.89,0.79,0.0007937005259840996
378,0.42245933413505554,0.5251255631446838,0.89,0.79,0.0007937005259840996
379,0.41991251707077026,0.5209155082702637,0.9,0.79,0.0007937005259840996
380,0.4207688570022583,0.5263804197311401,0.9,0.79,0.0007937005259840996
381,0.42246952652931213,0.5354446768760681,0.9,0.77,0.0007937005259840996
382,0.4225081503391266,0.5479565858840942,0.89,0.75,0.0007937005259840996
383,0.4231127202510834,0.5480930209159851,0.89,0.75,0.0007937005259840996
384,0.43030861020088196,0.5168610215187073,0.88,0.8,0.0007937005259840996
385,0.4260013699531555,0.5238990783691406,0.88,0.79,0.0007937005259840996
386,0.46104148030281067,0.5270617008209229,0.84,0.79,0.0007937005259840996
387,0.45868536829948425,0.5298459529876709,0.85,0.78,0.0007937005259840996
388,0.4617271423339844,0.526341438293457,0.85,0.79,0.0007937005259840996
389,0.45715805888175964,0.5089571475982666,0.85,0.81,0.0007937005259840996
390,0.42973631620407104,0.5216760039329529,0.89,0.78,0.0007937005259840996
391,0.4211907684803009,0.5260515809059143,0.89,0.8,0.0007937005259840996
392,0.4282435476779938,0.5249460339546204,0.88,0.78,0.0007937005259840996
393,0.4376432001590729,0.5253170132637024,0.88,0.78,0.0007937005259840996
394,0.43634459376335144,0.5261459946632385,0.88,0.78,0.0007937005259840996
395,0.42223259806632996,0.5161570906639099,0.88,0.8,0.0007937005259840996
396,0.4191000461578369,0.516553521156311,0.89,0.79,0.0007937005259840996
397,0.41685184836387634,0.5145922303199768,0.9,0.79,0.0007937005259840996
398,0.41485512256622314,0.5146685242652893,0.91,0.79,0.0007937005259840996
399,0.4138953387737274,0.5202016234397888,0.91,0.79,0.0007937005259840996
400,0.41319793462753296,0.52382493019104,0.91,0.79,0.0007937005259840996
401,0.4140857756137848,0.5241755843162537,0.91,0.79,0.0007937005259840996
402,0.4147392213344574,0.5238487720489502,0.91,0.78,0.0007937005259840996
403,0.41516587138175964,0.5239877104759216,0.9,0.78,0.0007937005259840996
404,0.413772851228714,0.5250610113143921,0.9,0.78,0.0007937005259840996
405,0.4116171896457672,0.5236258506774902,0.91,0.78,0.0007937005259840996
406,0.41031113266944885,0.5150354504585266,0.91,0.78,0.0007937005259840996
407,0.40906739234924316,0.506941556930542,0.91,0.8,0.0007937005259840996
408,0.4087931513786316,0.5028850436210632,0.91,0.8,0.0007937005259840996
409,0.4085826873779297,0.5000706911087036,0.91,0.82,0.0007937005259840996
410,0.40594372153282166,0.5148727297782898,0.91,0.79,0.0007937005259840996
411,0.4032670855522156,0.49956458806991577,0.91,0.81,0.0007937005259840996
412,0.4057162404060364,0.5002744197845459,0.91,0.81,0.0007937005259840996
413,0.4024718105792999,0.4951736032962799,0.92,0.81,0.0007937005259840996
414,0.4038647413253784,0.49980300664901733,0.92,0.8,0.0007937005259840996
415,0.4012793302536011,0.5026540160179138,0.92,0.81,0.0007937005259840996
416,0.39952224493026733,0.5042123198509216,0.92,0.8,0.0007937005259840996
417,0.39872029423713684,0.511093258857727,0.92,0.81,0.0007937005259840996
418,0.39750537276268005,0.524179220199585,0.92,0.79,0.0007937005259840996
419,0.3964644968509674,0.5286778807640076,0.93,0.79,0.0007937005259840996
420,0.3953075706958771,0.5261133909225464,0.92,0.78,0.0007937005259840996
421,0.3940737247467041,0.5193458795547485,0.92,0.79,0.0007937005259840996
422,0.39374014735221863,0.5166095495223999,0.92,0.79,0.0007937005259840996
423,0.3930748403072357,0.5152783989906311,0.92,0.79,0.0007937005259840996
424,0.3918948471546173,0.5156728625297546,0.93,0.8,0.0007937005259840996
425,0.3901299238204956,0.5184465050697327,0.93,0.79,0.0007937005259840996
426,0.3868025243282318,0.5181946158409119,0.93,0.8,0.0007937005259840996
427,0.38682425022125244,0.5118911862373352,0.94,0.8,0.0007937005259840996
428,0.38442420959472656,0.5077012777328491,0.94,0.8,0.0007937005259840996
429,0.3869081735610962,0.5094137191772461,0.94,0.8,0.0007937005259840996
430,0.38710975646972656,0.5104942917823792,0.94,0.8,0.0007937005259840996
431,0.38623130321502686,0.5097922682762146,0.94,0.81,0.0007937005259840996
432,0.3859630227088928,0.5110366344451904,0.94,0.81,0.0007937005259840996
433,0.38567212224006653,0.5121611952781677,0.94,0.81,0.0007937005259840996
434,0.3852740526199341,0.5122716426849365,0.94,0.81,0.0007937005259840996
435,0.3845049738883972,0.5089919567108154,0.94,0.81,0.0007937005259840996
436,0.3826676905155182,0.5038992762565613,0.94,0.81,0.0007937005259840996
437,0.380788654088974,0.5018680691719055,0.94,0.81,0.0007937005259840996
438,0.3797576129436493,0.5026518702507019,0.94,0.81,0.0007937005259840996
439,0.37934765219688416,0.5061108469963074,0.94,0.8,0.0007937005259840996
440,0.3792251646518707,0.5071973204612732,0.94,0.81,0.0007937005259840996
441,0.3791212737560272,0.507311999797821,0.94,0.81,0.0007937005259840996
442,0.3789573311805725,0.5079981088638306,0.94,0.81,0.0007937005259840996
443,0.378655344247818,0.5094362497329712,0.94,0.81,0.0007937005259840996
444,0.37853026390075684,0.5109599828720093,0.94,0.81,0.0007937005259840996
445,0.37929579615592957,0.5073481202125549,0.94,0.81,0.0007937005259840996
446,0.3781568109989166,0.5068596601486206,0.94,0.81,0.0007937005259840996
447,0.37765243649482727,0.5064004063606262,0.94,0.81,0.0006299605249474364
448,0.37744271755218506,0.5058339834213257,0.94,0.81,0.0006299605249474364
449,0.37737342715263367,0.5050706267356873,0.94,0.81,0.0006299605249474364
450,0.37728503346443176,0.5036172270774841,0.94,0.81,0.0006299605249474364
451,0.377120703458786,0.501153290271759,0.94,0.81,0.0006299605249474364
452,0.37693461775779724,0.49859896302223206,0.94,0.82,0.0006299605249474364
453,0.3768136501312256,0.49707546830177307,0.94,0.82,0.0006299605249474364
454,0.376783549785614,0.4965871572494507,0.94,0.81,0.0006299605249474364
455,0.37678638100624084,0.49645814299583435,0.94,0.81,0.0006299605249474364
456,0.3767233192920685,0.49621114134788513,0.94,0.82,0.0006299605249474364
457,0.376592755317688,0.49590572714805603,0.94,0.82,0.0006299605249474364
458,0.37646540999412537,0.49572768807411194,0.94,0.82,0.0006299605249474364
459,0.37637099623680115,0.4957910478115082,0.94,0.82,0.0006299605249474364
460,0.3762998878955841,0.49621352553367615,0.94,0.82,0.0006299605249474364
461,0.376229852437973,0.4971148371696472,0.94,0.81,0.0006299605249474364
462,0.376144140958786,0.49835604429244995,0.94,0.81,0.0006299605249474364
463,0.37604308128356934,0.4994521737098694,0.94,0.81,0.0006299605249474364
464,0.37594252824783325,0.5000909566879272,0.94,0.81,0.0006299605249474364
465,0.3758589029312134,0.500368595123291,0.94,0.82,0.0006299605249474364
466,0.3757966160774231,0.500558614730835,0.94,0.82,0.0006299605249474364
467,0.3757483959197998,0.5009843111038208,0.94,0.82,0.0006299605249474364
468,0.3757026195526123,0.5018697381019592,0.94,0.82,0.0006299605249474364
469,0.3756534457206726,0.5030611753463745,0.94,0.82,0.0006299605249474364
470,0.3756037652492523,0.504159688949585,0.94,0.81,0.0006299605249474364
471,0.37556058168411255,0.5049400329589844,0.94,0.81,0.0006299605249474364
472,0.3755265176296234,0.5053903460502625,0.94,0.81,0.0006299605249474364
473,0.3754960000514984,0.5055640935897827,0.94,0.8,0.0006299605249474364
474,0.37546101212501526,0.5055056214332581,0.94,0.8,0.0006299605249474364
475,0.37541884183883667,0.5052409172058105,0.94,0.81,0.0006299605249474364
476,0.3753732442855835,0.504790186882019,0.94,0.81,0.0006299605249474364
477,0.37532973289489746,0.5041807293891907,0.94,0.81,0.0006299605249474364
478,0.3752904236316681,0.503454327583313,0.94,0.81,0.0006299605249474364
479,0.37525391578674316,0.5026669502258301,0.94,0.81,0.0006299605249474364
480,0.37521785497665405,0.5018820762634277,0.94,0.81,0.0006299605249474364
481,0.3751814365386963,0.5011575818061829,0.94,0.82,0.0006299605249474364
482,0.37514621019363403,0.50053471326828,0.94,0.82,0.0006299605249474364
483,0.3751142621040344,0.500032365322113,0.94,0.82,0.0006299605249474364
484,0.37508624792099,0.4996488094329834,0.94,0.82,0.0006299605249474364
485,0.37506115436553955,0.4993690550327301,0.94,0.82,0.0006299605249474364
486,0.37503689527511597,0.4991707503795624,0.94,0.82,0.0006299605249474364
487,0.37501198053359985,0.49903011322021484,0.94,0.82,0.0006299605249474364
488,0.3749864101409912,0.49892494082450867,0.94,0.82,0.0006299605249474364
489,0.37496107816696167,0.49883583188056946,0.94,0.82,0.0006299605249474364
490,0.37493690848350525,0.4987482726573944,0.94,0.82,0.0006299605249474364
491,0.37491366267204285,0.49865368008613586,0.94,0.82,0.0006299605249474364
492,0.37489089369773865,0.4985509514808655,0.94,0.82,0.0006299605249474364
493,0.3748680055141449,0.49844610691070557,0.94,0.82,0.0006299605249474364
494,0.37484505772590637,0.4983496069908142,0.94,0.82,0.0006299605249474364
495,0.3748224973678589,0.4982735514640808,0.94,0.82,0.0006299605249474364
496,0.3748008608818054,0.49822819232940674,0.94,0.82,0.0006299605249474364
497,0.37478047609329224,0.49821940064430237,0.94,0.82,0.0006299605249474364
498,0.3747609853744507,0.4982466399669647,0.94,0.82,0.0006299605249474364
499,0.3747420608997345,0.4983009099960327,0.94,0.82,0.0006299605249474364
500,0.374723345041275,0.49836429953575134,0.94,0.82,0.0006299605249474364
501,0.37470507621765137,0.49841225147247314,0.94,0.82,0.0006299605249474364
502,0.3746875524520874,0.4984174966812134,0.94,0.82,0.0006299605249474364
503,0.3746708035469055,0.4983579218387604,0.94,0.82,0.0006299605249474364
504,0.374654620885849,0.4982230067253113,0.94,0.82,0.0006299605249474364
505,0.3746389150619507,0.4980146884918213,0.94,0.82,0.0006299605249474364
506,0.37462326884269714,0.4977456331253052,0.94,0.82,0.0006299605249474364
507,0.3746076822280884,0.4974319040775299,0.94,0.82,0.0006299605249474364
508,0.3745923638343811,0.49708807468414307,0.94,0.82,0.0006299605249474364
509,0.3745774030685425,0.49672409892082214,0.94,0.82,0.0006299605249474364
510,0.3745628595352173,0.4963449537754059,0.94,0.82,0.0006299605249474364
511,0.37454867362976074,0.4959510862827301,0.94,0.82,0.0006299605249474364
512,0.3745347261428833,0.49553996324539185,0.94,0.82,0.0006299605249474364
513,0.3745209574699402,0.4951096773147583,0.94,0.82,0.0006299605249474364
514,0.37450745701789856,0.49466168880462646,0.94,0.82,0.0006299605249474364
515,0.37449440360069275,0.4942031502723694,0.94,0.82,0.0006299605249474364
516,0.3744816184043884,0.49374592304229736,0.94,0.82,0.0006299605249474364
517,0.37446919083595276,0.493302583694458,0.94,0.82,0.0006299605249474364
518,0.37445706129074097,0.4928821921348572,0.94,0.82,0.0006299605249474364
519,0.3744451105594635,0.49248847365379333,0.94,0.82,0.0006299605249474364
520,0.3744332790374756,0.49211955070495605,0.94,0.82,0.0006299605249474364
521,0.37442177534103394,0.49177059531211853,0.94,0.82,0.0006299605249474364
522,0.3744105100631714,0.4914368689060211,0.94,0.82,0.0006299605249474364
523,0.37439942359924316,0.4911154508590698,0.94,0.82,0.0006299605249474364
524,0.37438857555389404,0.4908073842525482,0.94,0.82,0.0006299605249474364
525,0.37437790632247925,0.4905165135860443,0.94,0.83,0.0006299605249474364
526,0.374367356300354,0.4902488589286804,0.94,0.83,0.0006299605249474364
527,0.3743569850921631,0.49000969529151917,0.94,0.83,0.0006299605249474364
528,0.3743467628955841,0.4898017942905426,0.94,0.83,0.0006299605249474364
529,0.374336838722229,0.489624947309494,0.94,0.83,0.0006299605249474364
530,0.3743270933628082,0.4894765019416809,0.94,0.83,0.0006299605249474364
531,0.3743174374103546,0.48935288190841675,0.94,0.83,0.0006299605249474364
532,0.3743079900741577,0.48925095796585083,0.94,0.83,0.0006299605249474364
533,0.37429866194725037,0.48916950821876526,0.94,0.83,0.0006299605249474364
534,0.37428951263427734,0.4891100823879242,0.94,0.83,0.0006299605249474364
535,0.37428048253059387,0.48907679319381714,0.94,0.83,0.0006299605249474364
536,0.3742716312408447,0.4890762269496918,0.94,0.83,0.0006299605249474364
537,0.3742629885673523,0.48911717534065247,0.94,0.83,0.0006299605249474364
538,0.37425440549850464,0.48920953273773193,0.94,0.83,0.0006299605249474364
539,0.3742460310459137,0.48936453461647034,0.94,0.83,0.0006299605249474364
540,0.37423762679100037,0.4895933270454407,0.94,0.83,0.0006299605249474364
541,0.3742295503616333,0.48990508913993835,0.94,0.83,0.0006299605249474364
542,0.37422144412994385,0.4903048276901245,0.94,0.82,0.0006299605249474364
543,0.37421348690986633,0.49079054594039917,0.94,0.82,0.0006299605249474364
544,0.37420567870140076,0.4913519024848938,0.94,0.82,0.0006299605249474364
545,0.37419795989990234,0.4919705092906952,0.94,0.82,0.0006299605249474364
546,0.37419041991233826,0.4926215410232544,0.94,0.82,0.0006299605249474364
547,0.3741828501224518,0.493274450302124,0.94,0.82,0.0006299605249474364
548,0.374175488948822,0.493892639875412,0.94,0.82,0.0004999999999999997
549,0.3741682469844818,0.4943350851535797,0.94,0.82,0.0004999999999999997
550,0.3741625249385834,0.4947168827056885,0.94,0.82,0.0004999999999999997
551,0.3741569221019745,0.495025098323822,0.94,0.82,0.0004999999999999997
552,0.374151349067688,0.49525532126426697,0.94,0.82,0.0004999999999999997
553,0.37414586544036865,0.4954124093055725,0.94,0.82,0.0004999999999999997
554,0.3741403818130493,0.4955076575279236,0.94,0.82,0.0004999999999999997
555,0.3741351068019867,0.49555519223213196,0.94,0.82,0.0004999999999999997
556,0.3741298317909241,0.49556830525398254,0.94,0.82,0.0004999999999999997
557,0.37412452697753906,0.4955572783946991,0.94,0.82,0.0004999999999999997
558,0.3741193413734436,0.4955300986766815,0.94,0.82,0.0004999999999999997
559,0.3741142153739929,0.49549195170402527,0.94,0.82,0.0004999999999999997
560,0.37410908937454224,0.49544650316238403,0.94,0.82,0.0004999999999999997
561,0.3741041123867035,0.49539661407470703,0.94,0.82,0.0004999999999999997
562,0.37409916520118713,0.49534425139427185,0.94,0.82,0.0004999999999999997
563,0.3740941882133484,0.4952908754348755,0.94,0.82,0.0004999999999999997
564,0.37408939003944397,0.49523764848709106,0.94,0.82,0.0004999999999999997
565,0.3740845024585724,0.49518534541130066,0.94,0.82,0.0004999999999999997
566,0.37407979369163513,0.49513423442840576,0.94,0.82,0.0004999999999999997
567,0.3740750849246979,0.4950842559337616,0.94,0.82,0.0004999999999999997
568,0.374070405960083,0.4950350522994995,0.94,0.82,0.0004999999999999997
569,0.3740657567977905,0.494986355304718,0.94,0.82,0.0004999999999999997
570,0.37406113743782043,0.4949372410774231,0.94,0.82,0.0004999999999999997
571,0.3740565776824951,0.49488750100135803,0.94,0.82,0.0004999999999999997
572,0.37405213713645935,0.4948362708091736,0.94,0.82,0.0004999999999999997
573,0.3740476369857788,0.4947836697101593,0.94,0.82,0.0004999999999999997
574,0.37404322624206543,0.49472931027412415,0.94,0.82,0.0004999999999999997
575,0.37403881549835205,0.4946734309196472,0.94,0.82,0.0004999999999999997
576,0.37403446435928345,0.49461624026298523,0.94,0.82,0.0004999999999999997
577,0.374030202627182,0.49455803632736206,0.94,0.82,0.0004999999999999997
578,0.3740258812904358,0.4944993555545807,0.94,0.82,0.0004999999999999997
579,0.37402164936065674,0.494440495967865,0.94,0.82,0.0004999999999999997
580,0.37401747703552246,0.49438154697418213,0.94,0.82,0.0004999999999999997
581,0.3740132451057434,0.49432265758514404,0.94,0.82,0.0004999999999999997
582,0.37400922179222107,0.49426406621932983,0.94,0.82,0.0004999999999999997
583,0.37400513887405396,0.4942052960395813,0.94,0.82,0.0004999999999999997
584,0.37400099635124207,0.4941464960575104,0.94,0.82,0.0004999999999999997
585,0.3739970028400421,0.4940871298313141,0.94,0.82,0.0004999999999999997
586,0.37399300932884216,0.49402716755867004,0.94,0.82,0.0004999999999999997
587,0.3739889860153198,0.49396634101867676,0.94,0.82,0.0004999999999999997
588,0.37398505210876465,0.49390465021133423,0.94,0.82,0.0004999999999999997
589,0.37398117780685425,0.49384209513664246,0.94,0.82,0.0004999999999999997
590,0.3739772140979767,0.4937787353992462,0.94,0.82,0.0004999999999999997
591,0.3739733397960663,0.4937146008014679,0.94,0.82,0.0004999999999999997
592,0.3739694654941559,0.49365007877349854,0.94,0.82,0.0004999999999999997
593,0.37396565079689026,0.493585467338562,0.94,0.82,0.0004999999999999997
594,0.37396174669265747,0.4935208559036255,0.94,0.82,0.0004999999999999997
595,0.37395790219306946,0.4934566915035248,0.94,0.82,0.0004999999999999997
596,0.37395408749580383,0.493393212556839,0.94,0.82,0.0004999999999999997
597,0.37395015358924866,0.49333086609840393,0.94,0.82,0.0004999999999999997
598,0.37394630908966064,0.49327030777931213,0.94,0.82,0.0004999999999999997
599,0.3739423453807831,0.49321243166923523,0.94,0.82,0.0004999999999999997
600,0.37393826246261597,0.4931584298610687,0.94,0.82,0.0004999999999999997
601,0.3739340603351593,0.49311089515686035,0.94,0.82,0.0004999999999999997
602,0.37392956018447876,0.49307364225387573,0.94,0.82,0.0004999999999999997
603,0.3739246129989624,0.49305373430252075,0.94,0.82,0.0004999999999999997
604,0.3739188015460968,0.49306485056877136,0.94,0.82,0.0004999999999999997
605,0.37391117215156555,0.49313610792160034,0.94,0.82,0.0004999999999999997
606,0.37389877438545227,0.4933437705039978,0.94,0.82,0.0004999999999999997
607,0.37386855483055115,0.49396446347236633,0.94,0.82,0.0004999999999999997
608,0.3736949563026428,0.49712303280830383,0.94,0.81,0.0004999999999999997
609,0.36659157276153564,0.4831957221031189,0.95,0.82,0.0004999999999999997
610,0.3640090823173523,0.4858863353729248,0.95,0.83,0.0004999999999999997
611,0.3757193684577942,0.48519203066825867,0.94,0.83,0.0004999999999999997
612,0.3739537000656128,0.5049221515655518,0.94,0.81,0.0004999999999999997
613,0.3774671256542206,0.4951147139072418,0.94,0.82,0.0004999999999999997
614,0.37772977352142334,0.496871680021286,0.94,0.82,0.0004999999999999997
615,0.3872305154800415,0.48956725001335144,0.93,0.83,0.0004999999999999997
616,0.3973948657512665,0.487849622964859,0.92,0.83,0.0004999999999999997
617,0.4065849184989929,0.4677855372428894,0.9,0.85,0.0004999999999999997
618,0.39828255772590637,0.46881207823753357,0.92,0.85,0.0004999999999999997
619,0.39697062969207764,0.46823298931121826,0.92,0.85,0.0004999999999999997
620,0.39525049924850464,0.4888497591018677,0.92,0.81,0.0004999999999999997
621,0.39557257294654846,0.49736353754997253,0.92,0.81,0.0004999999999999997
622,0.3857177495956421,0.5049335956573486,0.93,0.8,0.0004999999999999997
623,0.386617511510849,0.516280472278595,0.93,0.79,0.0004999999999999997
624,0.3877326250076294,0.5114599466323853,0.93,0.8,0.0004999999999999997
625,0.38779282569885254,0.4997011423110962,0.93,0.81,0.0004999999999999997
626,0.3969254791736603,0.4955344498157501,0.92,0.82,0.0004999999999999997
627,0.39457637071609497,0.4952507019042969,0.92,0.82,0.0004999999999999997
628,0.3971751928329468,0.4776615798473358,0.91,0.84,0.0004999999999999997
629,0.40832754969596863,0.47422218322753906,0.9,0.84,0.0004999999999999997
630,0.3987140953540802,0.47626185417175293,0.92,0.84,0.0004999999999999997
631,0.39163917303085327,0.4940037131309509,0.93,0.8,0.0004999999999999997
632,0.40730950236320496,0.49838146567344666,0.91,0.81,0.0004999999999999997
633,0.4048204720020294,0.46774619817733765,0.91,0.85,0.0004999999999999997
634,0.38595685362815857,0.4659896194934845,0.93,0.85,0.0004999999999999997
635,0.40367257595062256,0.4559209942817688,0.91,0.86,0.0004999999999999997
636,0.39729776978492737,0.4615587592124939,0.92,0.86,0.0004999999999999997
637,0.3986147940158844,0.48577332496643066,0.92,0.83,0.0004999999999999997
638,0.400828093290329,0.46605557203292847,0.92,0.85,0.0004999999999999997
639,0.3959048390388489,0.45636308193206787,0.92,0.86,0.0004999999999999997
640,0.3967462480068207,0.4626464545726776,0.92,0.85,0.0004999999999999997
641,0.39512181282043457,0.4788401424884796,0.92,0.84,0.0004999999999999997
642,0.39434805512428284,0.4610854983329773,0.92,0.86,0.0004999999999999997
643,0.3914906978607178,0.47734665870666504,0.92,0.85,0.0004999999999999997
644,0.38866204023361206,0.4872618615627289,0.93,0.83,0.0004999999999999997
645,0.3939584791660309,0.48706015944480896,0.93,0.81,0.0004999999999999997
646,0.3943117558956146,0.4949457049369812,0.91,0.83,0.0004999999999999997
647,0.37046393752098083,0.5122913122177124,0.95,0.81,0.0004999999999999997
648,0.37482237815856934,0.5150730609893799,0.94,0.79,0.0004999999999999997
649,0.37934020161628723,0.5069329738616943,0.94,0.81,0.0004999999999999997
650,0.38324326276779175,0.5108126997947693,0.93,0.8,0.0004999999999999997
651,0.39016959071159363,0.504381537437439,0.93,0.81,0.0004999999999999997
652,0.38747403025627136,0.5201587677001953,0.92,0.79,0.0004999999999999997
653,0.4071773886680603,0.5044874548912048,0.9,0.81,0.0004999999999999997
654,0.4214891195297241,0.5000393986701965,0.89,0.81,0.0004999999999999997
655,0.42152291536331177,0.509300947189331,0.89,0.79,0.0004999999999999997
656,0.42084789276123047,0.5089322328567505,0.89,0.8,0.0004999999999999997
657,0.41837406158447266,0.5213587880134583,0.89,0.79,0.0004999999999999997
658,0.4287235736846924,0.522051215171814,0.88,0.78,0.0004999999999999997
659,0.42898520827293396,0.5197457075119019,0.88,0.8,0.0004999999999999997
660,0.4277244210243225,0.5161713361740112,0.88,0.8,0.0004999999999999997
661,0.41985759139060974,0.491547554731369,0.89,0.81,0.0004999999999999997
662,0.4090280532836914,0.47992202639579773,0.9,0.83,0.0004999999999999997
663,0.41328033804893494,0.4899076223373413,0.9,0.82,0.0004999999999999997
664,0.41489046812057495,0.4899093210697174,0.9,0.81,0.0004999999999999997
665,0.40746742486953735,0.49155688285827637,0.9,0.82,0.0004999999999999997
666,0.41035157442092896,0.49488621950149536,0.88,0.82,0.0004999999999999997
667,0.4060547351837158,0.49521178007125854,0.9,0.82,0.0004999999999999997
668,0.39665472507476807,0.5004452466964722,0.92,0.8,0.0004999999999999997
669,0.3954235315322876,0.5011197328567505,0.92,0.82,0.0004999999999999997
670,0.3873918652534485,0.5091713666915894,0.93,0.79,0.0004999999999999997
671,0.38132283091545105,0.5075967907905579,0.94,0.8,0.0004999999999999997
672,0.3811150789260864,0.4994198977947235,0.94,0.81,0.0004999999999999997
673,0.3819648027420044,0.5007684826850891,0.94,0.81,0.0004999999999999997
674,0.38138309121131897,0.5023533701896667,0.94,0.81,0.0004999999999999997
675,0.380359947681427,0.503635048866272,0.94,0.8,0.0004999999999999997
676,0.3797318637371063,0.5063712000846863,0.94,0.8,0.0004999999999999997
677,0.381210058927536,0.5053181648254395,0.94,0.8,0.0004999999999999997
678,0.38002726435661316,0.5047076940536499,0.94,0.8,0.0004999999999999997
679,0.37999463081359863,0.5021619200706482,0.94,0.81,0.0004999999999999997
680,0.3792448043823242,0.49863874912261963,0.94,0.81,0.0004999999999999997
681,0.3786141872406006,0.4961361289024353,0.94,0.82,0.0004999999999999997
682,0.37822917103767395,0.4985487759113312,0.94,0.81,0.0004999999999999997
683,0.37777069211006165,0.5026171803474426,0.94,0.81,0.0004999999999999997
684,0.3771391808986664,0.5022919774055481,0.94,0.81,0.0004999999999999997
685,0.3765240013599396,0.5016705989837646,0.94,0.81,0.0004999999999999997
686,0.37614381313323975,0.5005545616149902,0.94,0.8,0.0004999999999999997
687,0.37616991996765137,0.4990330636501312,0.94,0.8,0.0004999999999999997
688,0.3761550486087799,0.49802547693252563,0.94,0.8,0.0004999999999999997
689,0.3673821985721588,0.4964630901813507,0.95,0.81,0.0004999999999999997
690,0.3672837018966675,0.4970303773880005,0.95,0.8,0.0004999999999999997
691,0.3668119013309479,0.4992946684360504,0.95,0.8,0.0004999999999999997
692,0.3659643828868866,0.5001927018165588,0.95,0.8,0.0004999999999999997
693,0.36615222692489624,0.4999460279941559,0.95,0.81,0.0004999999999999997
694,0.36700525879859924,0.49947452545166016,0.95,0.81,0.0004999999999999997
695,0.3671361804008484,0.4988490343093872,0.95,0.81,0.0004999999999999997
696,0.3661639094352722,0.4977768361568451,0.95,0.81,0.0004999999999999997
697,0.3654133975505829,0.49591100215911865,0.95,0.8,0.0004999999999999997
698,0.3653137683868408,0.4938924014568329,0.95,0.81,0.0004999999999999997
699,0.36550843715667725,0.4931236505508423,0.95,0.82,0.0004999999999999997
700,0.36513128876686096,0.4933144450187683,0.95,0.82,0.0004999999999999997
701,0.3648471534252167,0.49393343925476074,0.95,0.82,0.0004999999999999997
702,0.3647090196609497,0.494591623544693,0.95,0.82,0.0004999999999999997
703,0.36464163661003113,0.4951118230819702,0.95,0.82,0.0004999999999999997
704,0.364608496427536,0.4954492151737213,0.95,0.82,0.0004999999999999997
705,0.3645927906036377,0.4956114888191223,0.95,0.82,0.0004999999999999997
706,0.36458447575569153,0.49561846256256104,0.95,0.82,0.0004999999999999997
707,0.36457526683807373,0.4954875111579895,0.95,0.82,0.0004999999999999997
708,0.3645589053630829,0.4952258765697479,0.95,0.82,0.0004999999999999997
709,0.3645305633544922,0.49482864141464233,0.95,0.82,0.0004999999999999997
710,0.3644861578941345,0.49428844451904297,0.95,0.82,0.0004999999999999997
711,0.364432156085968,0.493617981672287,0.95,0.82,0.00039685026299204955
712,0.3643854558467865,0.4930341839790344,0.95,0.82,0.00039685026299204955
713,0.36435988545417786,0.49246883392333984,0.95,0.82,0.00039685026299204955
714,0.364339679479599,0.4919900894165039,0.95,0.82,0.00039685026299204955
715,0.36431488394737244,0.4916333258152008,0.95,0.82,0.00039685026299204955
716,0.36428260803222656,0.49138474464416504,0.95,0.82,0.00039685026299204955
717,0.3642495274543762,0.4912046790122986,0.95,0.82,0.00039685026299204955
718,0.3642217218875885,0.49105408787727356,0.95,0.82,0.00039685026299204955
719,0.36420008540153503,0.4909032881259918,0.95,0.82,0.00039685026299204955
720,0.3641833961009979,0.4907320737838745,0.95,0.82,0.00039685026299204955
721,0.36416947841644287,0.49052825570106506,0.95,0.82,0.00039685026299204955
722,0.36415696144104004,0.490286260843277,0.95,0.82,0.00039685026299204955
723,0.36414483189582825,0.4900054931640625,0.95,0.82,0.00039685026299204955
724,0.3641326129436493,0.4896909296512604,0.95,0.82,0.00039685026299204955
725,0.3641203045845032,0.4893508553504944,0.95,0.82,0.00039685026299204955
726,0.3641079366207123,0.48899564146995544,0.95,0.82,0.00039685026299204955
727,0.3640958070755005,0.48863640427589417,0.95,0.82,0.00039685026299204955
728,0.3640840947628021,0.48828330636024475,0.95,0.82,0.00039685026299204955
729,0.36407265067100525,0.48794442415237427,0.95,0.82,0.00039685026299204955
730,0.3640616238117218,0.4876255393028259,0.95,0.82,0.00039685026299204955
731,0.3640510141849518,0.4873295724391937,0.95,0.82,0.00039685026299204955
732,0.3640408217906952,0.48705849051475525,0.95,0.83,0.00039685026299204955
733,0.3640310764312744,0.4868122935295105,0.95,0.83,0.00039685026299204955
734,0.36402201652526855,0.486591100692749,0.95,0.83,0.00039685026299204955
735,0.36401355266571045,0.486394464969635,0.95,0.83,0.00039685026299204955
736,0.36400580406188965,0.48622262477874756,0.95,0.83,0.00039685026299204955
737,0.36399850249290466,0.48607510328292847,0.95,0.83,0.00039685026299204955
738,0.3639918267726898,0.48595160245895386,0.95,0.83,0.00039685026299204955
739,0.3639853298664093,0.4858512580394745,0.95,0.83,0.00039685026299204955
740,0.3639789819717407,0.48577237129211426,0.95,0.83,0.00039685026299204955
741,0.3639727830886841,0.4857129752635956,0.95,0.83,0.00039685026299204955
742,0.363966703414917,0.48567062616348267,0.95,0.83,0.00039685026299204955
743,0.3639606237411499,0.48564255237579346,0.95,0.83,0.00039685026299204955
744,0.3639545440673828,0.4856259822845459,0.95,0.83,0.00039685026299204955
745,0.3639485836029053,0.48561859130859375,0.95,0.83,0.00039685026299204955
746,0.3639427423477173,0.48561805486679077,0.95,0.83,0.00039685026299204955
747,0.363937109708786,0.4856225252151489,0.95,0.83,0.00039685026299204955
748,0.3639316260814667,0.4856305420398712,0.95,0.83,0.00039685026299204955
749,0.3639264404773712,0.4856404960155487,0.95,0.83,0.00039685026299204955
750,0.36392131447792053,0.4856511354446411,0.95,0.83,0.00039685026299204955
751,0.36391642689704895,0.4856611490249634,0.95,0.83,0.00039685026299204955
752,0.3639116585254669,0.48566943407058716,0.95,0.83,0.00039685026299204955
753,0.3639070987701416,0.48567426204681396,0.95,0.83,0.00039685026299204955
754,0.36390262842178345,0.48567450046539307,0.95,0.83,0.00039685026299204955
755,0.3638981878757477,0.4856688678264618,0.95,0.83,0.00039685026299204955
756,0.36389389634132385,0.48565566539764404,0.95,0.83,0.00039685026299204955
757,0.3638896644115448,0.48563429713249207,0.95,0.83,0.00039685026299204955
758,0.3638854920864105,0.4856036305427551,0.95,0.83,0.00039685026299204955
759,0.3638814091682434,0.48556336760520935,0.95,0.83,0.00039685026299204955
760,0.36387738585472107,0.48551326990127563,0.95,0.83,0.00039685026299204955
761,0.36387336254119873,0.48545360565185547,0.95,0.83,0.00039685026299204955
762,0.36386939883232117,0.4853851795196533,0.95,0.83,0.00039685026299204955
763,0.3638654947280884,0.48530900478363037,0.95,0.83,0.00039685026299204955
764,0.36386173963546753,0.4852263629436493,0.95,0.83,0.00039685026299204955
765,0.36385783553123474,0.48513901233673096,0.95,0.83,0.00039685026299204955
766,0.36385416984558105,0.4850485622882843,0.95,0.83,0.00039685026299204955
767,0.36385056376457214,0.4849567711353302,0.95,0.83,0.00039685026299204955
768,0.36384689807891846,0.4848654270172119,0.95,0.84,0.00039685026299204955
769,0.3638433814048767,0.4847761392593384,0.95,0.84,0.00039685026299204955
770,0.3638399839401245,0.48469021916389465,0.95,0.84,0.00039685026299204955
771,0.3638365566730499,0.4846090078353882,0.95,0.84,0.00039685026299204955
772,0.3638332784175873,0.4845329225063324,0.95,0.84,0.00039685026299204955
773,0.36383000016212463,0.4844629764556885,0.95,0.84,0.00039685026299204955
774,0.363826721906662,0.4843991994857788,0.95,0.84,0.00039685026299204955
775,0.3638235330581665,0.4843415319919586,0.95,0.84,0.00039685026299204955
776,0.3638204336166382,0.48428967595100403,0.95,0.84,0.00039685026299204955
777,0.36381733417510986,0.48424315452575684,0.95,0.84,0.00039685026299204955
778,0.36381426453590393,0.4842014014720917,0.95,0.84,0.00039685026299204955
779,0.36381131410598755,0.4841635823249817,0.95,0.84,0.00039685026299204955
780,0.363808274269104,0.48412904143333435,0.95,0.84,0.00039685026299204955
781,0.36380526423454285,0.48409682512283325,0.95,0.84,0.00039685026299204955
782,0.3638024628162384,0.48406627774238586,0.95,0.84,0.00039685026299204955
783,0.3637996315956116,0.4840368926525116,0.95,0.84,0.00039685026299204955
784,0.36379677057266235,0.48400798439979553,0.95,0.84,0.00039685026299204955
785,0.3637939691543579,0.48397931456565857,0.95,0.84,0.00039685026299204955
786,0.36379119753837585,0.4839501678943634,0.95,0.84,0.00039685026299204955
787,0.36378851532936096,0.4839206039905548,0.95,0.84,0.00039685026299204955
788,0.36378586292266846,0.4838906228542328,0.95,0.83,0.00039685026299204955
789,0.36378318071365356,0.4838598668575287,0.95,0.83,0.00039685026299204955
790,0.36378058791160583,0.4838285744190216,0.95,0.83,0.00039685026299204955
791,0.3637779653072357,0.4837968051433563,0.95,0.83,0.00039685026299204955
792,0.36377549171447754,0.48376452922821045,0.95,0.83,0.00039685026299204955
793,0.3637729287147522,0.48373204469680786,0.95,0.83,0.00039685026299204955
794,0.363770455121994,0.4836992025375366,0.95,0.83,0.00039685026299204955
795,0.36376798152923584,0.48366644978523254,0.95,0.83,0.00039685026299204955
796,0.36376556754112244,0.483633816242218,0.95,0.83,0.00039685026299204955
797,0.36376312375068665,0.4836011826992035,0.95,0.83,0.00039685026299204955
798,0.3637607991695404,0.4835689663887024,0.95,0.83,0.00039685026299204955
799,0.3637583553791046,0.483536958694458,0.95,0.83,0.00039685026299204955
800,0.36375606060028076,0.483505517244339,0.95,0.83,0.00039685026299204955
801,0.3637537658214569,0.4834745526313782,0.95,0.83,0.00039685026299204955
802,0.36375150084495544,0.4834443926811218,0.95,0.83,0.00039685026299204955
803,0.3637492060661316,0.4834149479866028,0.95,0.83,0.00039685026299204955
804,0.3637470304965973,0.48338642716407776,0.95,0.83,0.00039685026299204955
805,0.3637447655200958,0.48335880041122437,0.95,0.83,0.00039685026299204955
806,0.3637425899505615,0.4833322763442993,0.95,0.83,0.00039685026299204955
807,0.363740473985672,0.48330700397491455,0.95,0.83,0.00039685026299204955
808,0.3637383282184601,0.48328277468681335,0.95,0.83,0.00039685026299204955
809,0.36373618245124817,0.48326003551483154,0.95,0.83,0.00039685026299204955
810,0.36373409628868103,0.48323866724967957,0.95,0.83,0.00039685026299204955
811,0.3637319505214691,0.4832187294960022,0.95,0.83,0.00039685026299204955
812,0.36372998356819153,0.4832000434398651,0.95,0.83,0.00039685026299204955
813,0.363727867603302,0.48318299651145935,0.95,0.83,0.00039685026299204955
814,0.3637259006500244,0.4831673502922058,0.95,0.83,0.00039685026299204955
815,0.36372390389442444,0.4831531047821045,0.95,0.83,0.00039685026299204955
816,0.36372193694114685,0.48314034938812256,0.95,0.83,0.00039685026299204955
817,0.3637199401855469,0.48312899470329285,0.95,0.83,0.00039685026299204955
818,0.36371803283691406,0.4831187427043915,0.95,0.83,0.00039685026299204955
819,0.3637160360813141,0.48310986161231995,0.95,0.83,0.00039685026299204955
820,0.3637141287326813,0.4831022024154663,0.95,0.83,0.00039685026299204955
821,0.36371222138404846,0.4830957055091858,0.95,0.83,0.00039685026299204955
822,0.3637104034423828,0.48309028148651123,0.95,0.83,0.00039685026299204955
823,0.36370858550071716,0.4830860495567322,0.95,0.83,0.00039685026299204955
824,0.36370670795440674,0.48308292031288147,0.95,0.83,0.00039685026299204955
825,0.3637048602104187,0.48308077454566956,0.95,0.83,0.00039685026299204955
826,0.36370301246643066,0.4830797612667084,0.95,0.83,0.00039685026299204955
827,0.3637012541294098,0.48308002948760986,0.95,0.83,0.00039685026299204955
828,0.36369937658309937,0.4830814599990845,0.95,0.83,0.00039685026299204955
829,0.3636976480484009,0.4830842614173889,0.95,0.83,0.00039685026299204955
830,0.36369583010673523,0.48308858275413513,0.95,0.83,0.00039685026299204955
831,0.3636941611766815,0.4830944538116455,0.95,0.83,0.00039685026299204955
832,0.36369243264198303,0.48310214281082153,0.95,0.83,0.00039685026299204955
833,0.36369067430496216,0.4831118881702423,0.95,0.83,0.00039685026299204955
834,0.36368900537490845,0.48312368988990784,0.95,0.83,0.00039685026299204955
835,0.3636872470378876,0.48313799500465393,0.95,0.83,0.00039685026299204955
836,0.36368560791015625,0.483155220746994,0.95,0.83,0.00039685026299204955
837,0.36368387937545776,0.4831754267215729,0.95,0.83,0.00039685026299204955
838,0.36368224024772644,0.4831991493701935,0.95,0.83,0.00039685026299204955
839,0.3636806011199951,0.4832266569137573,0.95,0.83,0.00039685026299204955
840,0.3636789321899414,0.48325875401496887,0.95,0.83,0.00039685026299204955
841,0.3636772930622101,0.4832955598831177,0.95,0.83,0.00039685026299204955
842,0.36367568373680115,0.48333796858787537,0.95,0.83,0.00039685026299204955
843,0.3636740446090698,0.4833865463733673,0.95,0.83,0.00039685026299204955
844,0.3636724054813385,0.4834420382976532,0.95,0.83,0.00039685026299204955
845,0.36367085576057434,0.4835054278373718,0.95,0.83,0.00039685026299204955
846,0.3636693060398102,0.4835776388645172,0.95,0.83,0.00039685026299204955
847,0.36366763710975647,0.4836597144603729,0.95,0.83,0.00039685026299204955
848,0.36366602778434753,0.4837528169155121,0.95,0.83,0.00039685026299204955
849,0.363664448261261,0.4838583469390869,0.95,0.83,0.00039685026299204955
850,0.36366286873817444,0.4839778542518616,0.95,0.83,0.00039685026299204955
851,0.3636612296104431,0.4841126501560211,0.95,0.83,0.00039685026299204955
852,0.36365970969200134,0.4842644929885864,0.95,0.83,0.00039685026299204955
853,0.3636581301689148,0.4844350516796112,0.95,0.83,0.00039685026299204955
854,0.36365649104118347,0.4846259355545044,0.95,0.83,0.00039685026299204955
855,0.3636549115180969,0.4848388731479645,0.95,0.83,0.00039685026299204955
856,0.36365336179733276,0.48507508635520935,0.95,0.83,0.00039685026299204955
857,0.3636518120765686,0.48533573746681213,0.95,0.83,0.00039685026299204955
858,0.3636501431465149,0.48562127351760864,0.95,0.83,0.00039685026299204955
859,0.36364856362342834,0.48593220114707947,0.95,0.83,0.00039685026299204955
860,0.3636469542980194,0.48626744747161865,0.95,0.83,0.00039685026299204955
861,0.3636452853679657,0.4866255819797516,0.95,0.83,0.00039685026299204955
862,0.3636436462402344,0.4870043098926544,0.95,0.82,0.00039685026299204955
863,0.3636419177055359,0.487400084733963,0.95,0.82,0.00039685026299204955
864,0.36364027857780457,0.4878089129924774,0.95,0.82,0.00039685026299204955
865,0.36363857984542847,0.4882257878780365,0.95,0.82,0.00039685026299204955
866,0.36363670229911804,0.48864537477493286,0.95,0.82,0.00039685026299204955
867,0.3636349141597748,0.48906201124191284,0.95,0.82,0.00039685026299204955
868,0.36363300681114197,0.48947033286094666,0.95,0.82,0.00039685026299204955
869,0.36363109946250916,0.48986518383026123,0.95,0.82,0.00039685026299204955
870,0.3636290729045868,0.4902416467666626,0.95,0.82,0.00039685026299204955
871,0.3636268973350525,0.49059638381004333,0.95,0.82,0.00039685026299204955
872,0.36362457275390625,0.490926057100296,0.95,0.82,0.00039685026299204955
873,0.36362209916114807,0.4912289083003998,0.95,0.82,0.00039685026299204955
874,0.36361950635910034,0.49150335788726807,0.95,0.82,0.00039685026299204955
875,0.3636164963245392,0.49174922704696655,0.95,0.82,0.00039685026299204955
876,0.363613098859787,0.4919663965702057,0.95,0.82,0.00039685026299204955
877,0.3636092245578766,0.4921557307243347,0.95,0.82,0.00039685026299204955
878,0.3636045753955841,0.4923180043697357,0.95,0.82,0.00039685026299204955
879,0.36359894275665283,0.4924544095993042,0.95,0.82,0.00039685026299204955
880,0.3635914921760559,0.49256619811058044,0.95,0.82,0.00039685026299204955
881,0.36358150839805603,0.4926542341709137,0.95,0.82,0.00039685026299204955
882,0.3635668456554413,0.4927191138267517,0.95,0.82,0.00039685026299204955
883,0.3635433614253998,0.4927605092525482,0.95,0.82,0.00039685026299204955
884,0.36350083351135254,0.4927746653556824,0.95,0.82,0.00039685026299204955
885,0.363407701253891,0.49274590611457825,0.95,0.82,0.00039685026299204955
886,0.3631293475627899,0.4925709068775177,0.95,0.82,0.00039685026299204955
887,0.36168238520622253,0.4917207360267639,0.95,0.81,0.00039685026299204955
888,0.3582942485809326,0.48886099457740784,0.96,0.82,0.00039685026299204955
889,0.3578363358974457,0.4893128573894501,0.96,0.82,0.00039685026299204955
890,0.35676613450050354,0.48768624663352966,0.96,0.83,0.00039685026299204955
891,0.35482415556907654,0.4800485670566559,0.96,0.84,0.00039685026299204955
892,0.3558804988861084,0.4823732078075409,0.96,0.83,0.00039685026299204955
893,0.35510239005088806,0.48397529125213623,0.96,0.83,0.00039685026299204955
894,0.35551151633262634,0.48847949504852295,0.96,0.82,0.00039685026299204955
895,0.35490134358406067,0.4867594838142395,0.96,0.83,0.00039685026299204955
896,0.35422733426094055,0.480077862739563,0.96,0.82,0.00039685026299204955
897,0.35406407713890076,0.4771725833415985,0.96,0.83,0.00039685026299204955
898,0.3539987802505493,0.4774131774902344,0.96,0.82,0.00039685026299204955
899,0.35408785939216614,0.4742504954338074,0.96,0.83,0.00039685026299204955
900,0.3539138436317444,0.47349151968955994,0.96,0.83,0.00039685026299204955
901,0.35386231541633606,0.475469708442688,0.96,0.82,0.00039685026299204955
902,0.353843092918396,0.4780852198600769,0.96,0.82,0.00039685026299204955
903,0.35382571816444397,0.48025810718536377,0.96,0.82,0.00039685026299204955
904,0.3538171648979187,0.48335033655166626,0.96,0.82,0.00039685026299204955
905,0.35378798842430115,0.4886064827442169,0.96,0.81,0.00039685026299204955
906,0.35375189781188965,0.4893159568309784,0.96,0.82,0.00039685026299204955
907,0.3537261486053467,0.48929908871650696,0.96,0.82,0.00039685026299204955
908,0.3537140190601349,0.49001452326774597,0.96,0.82,0.00039685026299204955
909,0.3537138104438782,0.49129095673561096,0.96,0.82,0.00039685026299204955
910,0.3537203073501587,0.492487370967865,0.96,0.81,0.00039685026299204955
911,0.3537236750125885,0.493190199136734,0.96,0.81,0.00039685026299204955
912,0.35371825098991394,0.493397057056427,0.96,0.81,0.00039685026299204955
913,0.3537093698978424,0.49323132634162903,0.96,0.81,0.00039685026299204955
914,0.35370177030563354,0.4928082525730133,0.96,0.81,0.00039685026299204955
915,0.3536961078643799,0.4922335743904114,0.96,0.81,0.00039685026299204955
916,0.35369181632995605,0.4916023015975952,0.96,0.81,0.00039685026299204955
917,0.3536882698535919,0.4909462332725525,0.96,0.81,0.00039685026299204955
918,0.3536841869354248,0.49016228318214417,0.96,0.81,0.00039685026299204955
919,0.35367879271507263,0.48908358812332153,0.96,0.81,0.00039685026299204955
920,0.35367152094841003,0.48774468898773193,0.96,0.81,0.00039685026299204955
921,0.35366329550743103,0.48640894889831543,0.96,0.81,0.00039685026299204955
922,0.35365504026412964,0.4852791130542755,0.96,0.81,0.00039685026299204955
923,0.3536476790904999,0.48437127470970154,0.96,0.83,0.00039685026299204955
924,0.35364142060279846,0.4836103320121765,0.96,0.83,0.00039685026299204955
925,0.35363632440567017,0.4829258322715759,0.96,0.83,0.00039685026299204955
926,0.3536318242549896,0.48228877782821655,0.96,0.83,0.00039685026299204955
927,0.35362759232521057,0.48170745372772217,0.96,0.83,0.00039685026299204955
928,0.35362330079078674,0.4812051057815552,0.96,0.83,0.00039685026299204955
929,0.35361912846565247,0.4807983636856079,0.96,0.83,0.00039685026299204955
930,0.3536152243614197,0.48048821091651917,0.96,0.83,0.00039685026299204955
931,0.3536119759082794,0.48026299476623535,0.96,0.83,0.00039685026299204955
932,0.35360923409461975,0.4801062345504761,0.96,0.83,0.00039685026299204955
933,0.3536068797111511,0.48000285029411316,0.96,0.83,0.00039685026299204955
934,0.35360458493232727,0.4799431562423706,0.96,0.83,0.00039685026299204955
935,0.35360223054885864,0.47992268204689026,0.96,0.83,0.00039685026299204955
936,0.35359954833984375,0.4799402952194214,0.96,0.83,0.00039685026299204955
937,0.35359665751457214,0.47999638319015503,0.96,0.83,0.00039685026299204955
938,0.35359370708465576,0.4800888001918793,0.96,0.83,0.00039685026299204955
939,0.35359081625938416,0.4802113473415375,0.96,0.83,0.00039685026299204955
940,0.35358819365501404,0.4803523123264313,0.96,0.83,0.00039685026299204955
941,0.35358577966690063,0.48049667477607727,0.96,0.83,0.00039685026299204955
942,0.35358360409736633,0.48062756657600403,0.96,0.83,0.00039685026299204955
943,0.35358166694641113,0.48073017597198486,0.96,0.83,0.00039685026299204955
944,0.35357969999313354,0.48079413175582886,0.96,0.83,0.00039685026299204955
945,0.3535778522491455,0.48081427812576294,0.96,0.83,0.00039685026299204955
946,0.3535759449005127,0.4807913899421692,0.96,0.83,0.00039685026299204955
947,0.35357415676116943,0.4807303547859192,0.96,0.83,0.00039685026299204955
948,0.3535723090171814,0.48063892126083374,0.96,0.83,0.00039685026299204955
949,0.3535706400871277,0.4805266559123993,0.96,0.83,0.00039685026299204955
950,0.35356900095939636,0.48040270805358887,0.96,0.83,0.00039685026299204955
951,0.353567510843277,0.480275422334671,0.96,0.83,0.00039685026299204955
952,0.35356608033180237,0.48015087842941284,0.96,0.83,0.00039685026299204955
953,0.3535647988319397,0.4800330102443695,0.96,0.83,0.00039685026299204955
954,0.35356342792510986,0.47992298007011414,0.96,0.83,0.00039685026299204955
955,0.3535620868206024,0.4798198938369751,0.96,0.83,0.00039685026299204955
956,0.35356074571609497,0.47972068190574646,0.96,0.83,0.00039685026299204955
957,0.3535594046115875,0.47962144017219543,0.96,0.83,0.00039685026299204955
958,0.35355818271636963,0.4795171320438385,0.96,0.83,0.00039685026299204955
959,0.35355690121650696,0.4794027805328369,0.96,0.83,0.00039685026299204955
960,0.35355567932128906,0.4792739450931549,0.96,0.83,0.00039685026299204955
961,0.35355448722839355,0.479126900434494,0.96,0.83,0.00039685026299204955
962,0.3535533547401428,0.4789593517780304,0.96,0.83,0.00039685026299204955
963,0.3535522520542145,0.4787707030773163,0.96,0.83,0.00039685026299204955
964,0.35355108976364136,0.4785618185997009,0.96,0.83,0.00039685026299204955
965,0.3535500764846802,0.47833502292633057,0.96,0.83,0.00039685026299204955
966,0.3535490334033966,0.4780937135219574,0.96,0.83,0.00039685026299204955
967,0.35354796051979065,0.4778423309326172,0.96,0.83,0.00039685026299204955
968,0.35354697704315186,0.47758594155311584,0.96,0.83,0.00039685026299204955
969,0.3535459637641907,0.4773293435573578,0.96,0.83,0.00039685026299204955
970,0.35354501008987427,0.4770771265029907,0.96,0.83,0.00039685026299204955
971,0.35354408621788025,0.47683390974998474,0.96,0.83,0.00039685026299204955
972,0.35354310274124146,0.47660258412361145,0.96,0.83,0.00039685026299204955
973,0.35354217886924744,0.47638610005378723,0.96,0.83,0.00039685026299204955
974,0.3535413444042206,0.47618618607521057,0.96,0.83,0.00039685026299204955
975,0.3535405099391937,0.4760035574436188,0.96,0.83,0.00039685026299204955
976,0.3535395562648773,0.47583815455436707,0.96,0.83,0.00039685026299204955
977,0.3535386919975281,0.4756893813610077,0.96,0.83,0.00039685026299204955
978,0.35353782773017883,0.4755558669567108,0.96,0.83,0.00039685026299204955
979,0.35353711247444153,0.47543591260910034,0.96,0.83,0.00039685026299204955
980,0.3535361588001251,0.4753274619579315,0.96,0.83,0.00039685026299204955
981,0.3535352945327759,0.4752281606197357,0.96,0.83,0.00039685026299204955
982,0.3535345494747162,0.47513604164123535,0.96,0.83,0.00039685026299204955
983,0.35353365540504456,0.47504913806915283,0.96,0.83,0.00039685026299204955
984,0.3535327911376953,0.4749656319618225,0.96,0.83,0.00039685026299204955
985,0.3535321056842804,0.4748842120170593,0.96,0.83,0.00039685026299204955
986,0.35353127121925354,0.47480401396751404,0.96,0.83,0.00039685026299204955
987,0.3535304665565491,0.4747242033481598,0.96,0.83,0.00039685026299204955
988,0.3535296618938446,0.47464466094970703,0.96,0.83,0.00039685026299204955
989,0.35352885723114014,0.4745650589466095,0.96,0.83,0.00039685026299204955
990,0.35352814197540283,0.4744856655597687,0.96,0.83,0.00039685026299204955
991,0.3535274267196655,0.47440674901008606,0.96,0.83,0.00039685026299204955
992,0.35352665185928345,0.4743287265300751,0.96,0.84,0.00039685026299204955
993,0.35352587699890137,0.47425156831741333,0.96,0.84,0.00039685026299204955
994,0.35352516174316406,0.4741758704185486,0.96,0.84,0.00039685026299204955
995,0.353524386882782,0.4741016626358032,0.96,0.84,0.00039685026299204955
996,0.3535236418247223,0.47402897477149963,0.96,0.84,0.00039685026299204955
997,0.3535228967666626,0.4739578664302826,0.96,0.84,0.00039685026299204955
998,0.3535221517086029,0.47388824820518494,0.96,0.84,0.00039685026299204955
999,0.353521466255188,0.4738200008869171,0.96,0.84,0.00039685026299204955
1000,0.35352078080177307,0.47375285625457764,0.96,0.84,0.00039685026299204955
1001,0.35352009534835815,0.47368645668029785,0.96,0.84,0.00039685026299204955
1002,0.35351935029029846,0.47362077236175537,0.96,0.84,0.00039685026299204955
1003,0.35351866483688354,0.4735555648803711,0.96,0.84,0.00039685026299204955
1004,0.35351794958114624,0.47349074482917786,0.96,0.84,0.00039685026299204955
1005,0.3535172641277313,0.4734261631965637,0.96,0.84,0.00039685026299204955
1006,0.353516548871994,0.4733622074127197,0.96,0.84,0.00039685026299204955
1007,0.3535159230232239,0.47329846024513245,0.96,0.84,0.00039685026299204955
1008,0.35351526737213135,0.4732356369495392,0.96,0.84,0.00039685026299204955
1009,0.3535146713256836,0.47317367792129517,0.96,0.84,0.00039685026299204955
1010,0.3535138964653015,0.47311297059059143,0.96,0.84,0.00039685026299204955
1011,0.35351327061653137,0.4730537533760071,0.96,0.84,0.00039685026299204955
1012,0.35351261496543884,0.4729962646961212,0.96,0.84,0.00039685026299204955
1013,0.3535119593143463,0.4729406237602234,0.96,0.84,0.00039685026299204955
1014,0.3535112738609314,0.4728870391845703,0.96,0.84,0.00039685026299204955
1015,0.35351067781448364,0.4728355407714844,0.96,0.84,0.00039685026299204955
1016,0.3535100221633911,0.4727862477302551,0.96,0.84,0.00039685026299204955
1017,0.3535093665122986,0.47273898124694824,0.96,0.84,0.00039685026299204955
1018,0.35350871086120605,0.4726935923099518,0.96,0.84,0.00039685026299204955
1019,0.3535081744194031,0.47265011072158813,0.96,0.84,0.00039685026299204955
1020,0.35350754857063293,0.4726080596446991,0.96,0.84,0.00039685026299204955
1021,0.3535068929195404,0.4725673794746399,0.96,0.84,0.00039685026299204955
1022,0.35350626707077026,0.47252774238586426,0.96,0.84,0.00039685026299204955
1023,0.3535056710243225,0.47248896956443787,0.96,0.84,0.00039685026299204955
1024,0.35350501537323,0.4724510908126831,0.96,0.84,0.00039685026299204955
1025,0.3535044491291046,0.47241371870040894,0.96,0.84,0.00039685026299204955
1026,0.35350391268730164,0.47237682342529297,0.96,0.84,0.00039685026299204955
1027,0.3535033166408539,0.4723404049873352,0.96,0.84,0.00039685026299204955
1028,0.35350266098976135,0.47230446338653564,0.96,0.84,0.00039685026299204955
1029,0.353502094745636,0.4722690284252167,0.96,0.84,0.00039685026299204955
1030,0.35350149869918823,0.47223421931266785,0.96,0.84,0.00039685026299204955
1031,0.3535008728504181,0.47220009565353394,0.96,0.84,0.00039685026299204955
1032,0.35350027680397034,0.4721667468547821,0.96,0.84,0.00039685026299204955
1033,0.35349971055984497,0.4721343219280243,0.96,0.84,0.00039685026299204955
1034,0.353499174118042,0.4721028208732605,0.96,0.84,0.00039685026299204955
1035,0.35349857807159424,0.47207242250442505,0.96,0.84,0.00039685026299204955
1036,0.35349801182746887,0.47204330563545227,0.96,0.84,0.00039685026299204955
1037,0.3534974157810211,0.4720150828361511,0.96,0.84,0.00039685026299204955
1038,0.3534969389438629,0.471988320350647,0.96,0.84,0.00039685026299204955
1039,0.35349637269973755,0.47196274995803833,0.96,0.84,0.00039685026299204955
1040,0.3534957468509674,0.4719383716583252,0.96,0.84,0.00039685026299204955
1041,0.35349521040916443,0.47191527485847473,0.96,0.84,0.00039685026299204955
1042,0.3534947335720062,0.4718932807445526,0.96,0.84,0.00039685026299204955
1043,0.3534941077232361,0.47187259793281555,0.96,0.84,0.00039685026299204955
1044,0.3534935712814331,0.4718528985977173,0.96,0.84,0.00039685026299204955
1045,0.3534930348396301,0.4718344509601593,0.96,0.84,0.00039685026299204955
1046,0.35349246859550476,0.4718170166015625,0.96,0.84,0.00039685026299204955
1047,0.35349202156066895,0.471800833940506,0.96,0.84,0.00039685026299204955
1048,0.3534913957118988,0.47178584337234497,0.96,0.84,0.00039685026299204955
1049,0.3534909188747406,0.4717720150947571,0.96,0.84,0.00039685026299204955
1050,0.3534903824329376,0.4717593789100647,0.96,0.84,0.00039685026299204955
1051,0.35348984599113464,0.4717482328414917,0.96,0.84,0.00039685026299204955
1052,0.35348933935165405,0.4717385172843933,0.96,0.84,0.00039685026299204955
1053,0.3534888029098511,0.47173023223876953,0.96,0.84,0.00039685026299204955
1054,0.35348835587501526,0.47172337770462036,0.96,0.84,0.00039685026299204955
1055,0.3534877896308899,0.4717184901237488,0.96,0.84,0.00039685026299204955
1056,0.3534872829914093,0.4717152416706085,0.96,0.84,0.00039685026299204955
1057,0.35348671674728394,0.4717137813568115,0.96,0.84,0.00039685026299204955
1058,0.35348623991012573,0.4717141389846802,0.96,0.84,0.00039685026299204955
1059,0.35348570346832275,0.47171661257743835,0.96,0.84,0.00039685026299204955
1060,0.35348522663116455,0.4717211425304413,0.96,0.84,0.00039685026299204955
1061,0.35348474979400635,0.4717276394367218,0.96,0.84,0.00039685026299204955
1062,0.35348427295684814,0.47173625230789185,0.96,0.84,0.00039685026299204955
1063,0.35348373651504517,0.47174695134162903,0.96,0.84,0.00039685026299204955
1064,0.35348328948020935,0.4717598259449005,0.96,0.84,0.00039685026299204955
1065,0.35348278284072876,0.47177502512931824,0.96,0.84,0.00039685026299204955
1066,0.35348233580589294,0.4717923104763031,0.96,0.84,0.00039685026299204955
1067,0.35348182916641235,0.47181200981140137,0.96,0.84,0.00039685026299204955
1068,0.35348132252693176,0.4718340039253235,0.96,0.84,0.00039685026299204955
1069,0.35348084568977356,0.4718583822250366,0.96,0.84,0.00039685026299204955
1070,0.35348042845726013,0.47188517451286316,0.96,0.84,0.00039685026299204955
1071,0.35347989201545715,0.4719144403934479,0.96,0.84,0.00039685026299204955
1072,0.35347941517829895,0.4719463586807251,0.96,0.84,0.00039685026299204955
1073,0.3534789979457855,0.47198066115379333,0.96,0.84,0.00039685026299204955
1074,0.3534785211086273,0.4720178544521332,0.96,0.84,0.00039685026299204955
1075,0.3534780442714691,0.47205761075019836,0.96,0.84,0.00039685026299204955
1076,0.3534776270389557,0.47210025787353516,0.96,0.84,0.00039685026299204955
1077,0.3534771203994751,0.47214579582214355,0.96,0.84,0.00039685026299204955
1078,0.3534766733646393,0.4721943140029907,0.96,0.84,0.00039685026299204955
1079,0.35347622632980347,0.4722457826137543,0.96,0.84,0.00039685026299204955
1080,0.3534757196903229,0.47230029106140137,0.96,0.84,0.00039685026299204955
1081,0.35347530245780945,0.472357839345932,0.96,0.84,0.00039685026299204955
1082,0.35347485542297363,0.47241851687431335,0.96,0.84,0.00039685026299204955
1083,0.35347434878349304,0.472482293844223,0.96,0.84,0.00039685026299204955
1084,0.3534739315509796,0.4725492596626282,0.96,0.84,0.00039685026299204955
1085,0.3534734845161438,0.4726194143295288,0.96,0.84,0.00039685026299204955
1086,0.35347306728363037,0.47269248962402344,0.96,0.84,0.00039685026299204955
1087,0.35347259044647217,0.4727686941623688,0.96,0.84,0.00039685026299204955
1088,0.35347214341163635,0.4728480577468872,0.96,0.84,0.00039685026299204955
1089,0.3534717559814453,0.47293034195899963,0.96,0.84,0.00039685026299204955
1090,0.3534713089466095,0.47301575541496277,0.96,0.84,0.00039685026299204955
1091,0.3534708321094513,0.4731040298938751,0.96,0.84,0.00039685026299204955
1092,0.35347041487693787,0.47319522500038147,0.96,0.84,0.00039685026299204955
1093,0.35346999764442444,0.4732893109321594,0.96,0.84,0.00039685026299204955
1094,0.353469580411911,0.4733860492706299,0.96,0.84,0.00039685026299204955
1095,0.3534691631793976,0.47348541021347046,0.96,0.84,0.00039685026299204955
1096,0.35346871614456177,0.4735872149467468,0.96,0.84,0.00039685026299204955
1097,0.3534683287143707,0.47369152307510376,0.96,0.84,0.00039685026299204955
1098,0.3534678518772125,0.4737981855869293,0.96,0.84,0.00039685026299204955
1099,0.35346749424934387,0.4739067554473877,0.96,0.84,0.00039685026299204955
1100,0.35346710681915283,0.4740176498889923,0.96,0.83,0.00039685026299204955
1101,0.35346662998199463,0.4741300642490387,0.96,0.83,0.00039685026299204955
1102,0.3534661829471588,0.4742443561553955,0.96,0.83,0.00039685026299204955
1103,0.3534657955169678,0.4743599593639374,0.96,0.83,0.00039685026299204955
1104,0.35346537828445435,0.4744769036769867,0.96,0.83,0.00039685026299204955
1105,0.3534650504589081,0.4745948314666748,0.96,0.84,0.00039685026299204955
1106,0.3534645736217499,0.47471386194229126,0.96,0.84,0.00039685026299204955
1107,0.3534642159938812,0.474833220243454,0.96,0.84,0.00039685026299204955
1108,0.353463739156723,0.47495323419570923,0.96,0.84,0.00039685026299204955
1109,0.3534633219242096,0.4750734567642212,0.96,0.84,0.00039685026299204955
1110,0.35346293449401855,0.4751936197280884,0.96,0.84,0.00039685026299204955
1111,0.3534626066684723,0.47531357407569885,0.96,0.84,0.00039685026299204955
1112,0.35346218943595886,0.4754333198070526,0.96,0.84,0.00039685026299204955
1113,0.3534618020057678,0.4755522906780243,0.96,0.84,0.00039685026299204955
1114,0.3534613847732544,0.47567054629325867,0.96,0.84,0.00039685026299204955
1115,0.35346096754074097,0.47578781843185425,0.96,0.84,0.00039685026299204955
1116,0.3534606099128723,0.4759039282798767,0.96,0.84,0.00039685026299204955
1117,0.35346028208732605,0.47601866722106934,0.96,0.84,0.00039685026299204955
1118,0.35345977544784546,0.47613200545310974,0.96,0.84,0.00039685026299204955
1119,0.3534594476222992,0.47624361515045166,0.96,0.84,0.00039685026299204955
1120,0.35345908999443054,0.4763535261154175,0.96,0.84,0.00039685026299204955
1121,0.3534586727619171,0.4764615297317505,0.96,0.84,0.00039685026299204955
1122,0.3534582555294037,0.4765676259994507,0.96,0.84,0.00039685026299204955
1123,0.35345789790153503,0.4766714870929718,0.96,0.84,0.00039685026299204955
1124,0.35345757007598877,0.47677311301231384,0.96,0.84,0.00039685026299204955
1125,0.35345715284347534,0.4768725633621216,0.96,0.84,0.00039685026299204955
1126,0.3534567654132843,0.47696956992149353,0.96,0.84,0.00039685026299204955
1127,0.35345637798309326,0.47706422209739685,0.96,0.84,0.00039685026299204955
1128,0.353456050157547,0.47715628147125244,0.96,0.84,0.00039685026299204955
1129,0.35345569252967834,0.4772459864616394,0.96,0.84,0.00039685026299204955
1130,0.3534552752971649,0.47733303904533386,0.96,0.84,0.00039685026299204955
1131,0.35345494747161865,0.47741755843162537,0.96,0.84,0.00039685026299204955
1132,0.35345450043678284,0.4774995744228363,0.96,0.84,0.00039685026299204955
1133,0.3534541726112366,0.47757893800735474,0.96,0.84,0.00039685026299204955
1134,0.3534538149833679,0.47765567898750305,0.96,0.84,0.00039685026299204955
1135,0.35345345735549927,0.47772976756095886,0.96,0.84,0.00039685026299204955
1136,0.353453129529953,0.4778014123439789,0.96,0.84,0.00039685026299204955
1137,0.35345277190208435,0.47787052392959595,0.96,0.84,0.00039685026299204955
1138,0.3534523844718933,0.4779371917247772,0.96,0.84,0.00039685026299204955
1139,0.35345202684402466,0.4780012369155884,0.96,0.84,0.00039685026299204955
1140,0.3534516990184784,0.4780629873275757,0.96,0.84,0.00039685026299204955
1141,0.35345131158828735,0.4781222641468048,0.96,0.84,0.00039685026299204955
1142,0.3534509539604187,0.47817909717559814,0.96,0.84,0.00039685026299204955
1143,0.35345059633255005,0.47823384404182434,0.96,0.84,0.00039685026299204955
1144,0.3534502387046814,0.4782862961292267,0.96,0.84,0.00039685026299204955
1145,0.35344991087913513,0.47833648324012756,0.96,0.84,0.00039685026299204955
1146,0.3534495234489441,0.47838473320007324,0.96,0.84,0.00039685026299204955
1147,0.3534492552280426,0.47843074798583984,0.96,0.84,0.00039685026299204955
1148,0.3534488379955292,0.4784749150276184,0.96,0.84,0.00039685026299204955
1149,0.3534485101699829,0.4785171449184418,0.96,0.84,0.00039685026299204955
1150,0.35344818234443665,0.4785574674606323,0.96,0.84,0.00039685026299204955
1151,0.353447824716568,0.4785958528518677,0.96,0.84,0.00039685026299204955
1152,0.35344749689102173,0.47863250970840454,0.96,0.84,0.00039685026299204955
1153,0.3534471392631531,0.4786674380302429,0.96,0.84,0.00039685026299204955
1154,0.3534468114376068,0.4787006676197052,0.96,0.84,0.00039685026299204955
1155,0.3534463942050934,0.4787324070930481,0.96,0.84,0.00039685026299204955
1156,0.3534461557865143,0.4787624776363373,0.96,0.84,0.00039685026299204955
1157,0.353445827960968,0.478791207075119,0.96,0.84,0.00039685026299204955
1158,0.35344550013542175,0.47881847620010376,0.96,0.84,0.00039685026299204955
1159,0.3534450829029083,0.4788442850112915,0.96,0.84,0.00039685026299204955
1160,0.35344478487968445,0.47886893153190613,0.96,0.84,0.00039685026299204955
1161,0.35344448685646057,0.4788922369480133,0.96,0.84,0.00039685026299204955
1162,0.35344409942626953,0.4789142906665802,0.96,0.84,0.00039685026299204955
1163,0.3534437417984009,0.47893521189689636,0.96,0.84,0.00039685026299204955
1164,0.3534435033798218,0.47895488142967224,0.96,0.84,0.00039685026299204955
1165,0.3534431457519531,0.47897374629974365,0.96,0.84,0.00039685026299204955
1166,0.3534427881240845,0.47899147868156433,0.96,0.84,0.00039685026299204955
1167,0.3534424901008606,0.4790082275867462,0.96,0.84,0.00039685026299204955
1168,0.35344216227531433,0.4790239632129669,0.96,0.84,0.00039685026299204955
1169,0.3534418046474457,0.47903892397880554,0.96,0.84,0.00039685026299204955
1170,0.35344159603118896,0.47905296087265015,0.96,0.84,0.00039685026299204955
1171,0.35344114899635315,0.47906625270843506,0.96,0.84,0.00039685026299204955
1172,0.3534408509731293,0.4790787100791931,0.96,0.84,0.00039685026299204955
1173,0.3534405827522278,0.47909045219421387,0.96,0.84,0.00039685026299204955
1174,0.3534402549266815,0.4791015684604645,0.96,0.84,0.00039685026299204955
1175,0.35343989729881287,0.4791119694709778,0.96,0.84,0.00039685026299204955
1176,0.353439599275589,0.4791216552257538,0.96,0.84,0.00039685026299204955
1177,0.3534393310546875,0.47913065552711487,0.96,0.84,0.00039685026299204955
1178,0.35343897342681885,0.4791393280029297,0.96,0.84,0.00039685026299204955
1179,0.35343867540359497,0.479147344827652,0.96,0.84,0.00039685026299204955
1180,0.3534384071826935,0.47915470600128174,0.96,0.84,0.00039685026299204955
1181,0.3534380793571472,0.47916164994239807,0.96,0.84,0.00039685026299204955
1182,0.35343778133392334,0.4791681170463562,0.96,0.84,0.00039685026299204955
1183,0.35343751311302185,0.47917410731315613,0.96,0.84,0.00039685026299204955
1184,0.3534371256828308,0.4791797399520874,0.96,0.84,0.00039685026299204955
1185,0.3534368872642517,0.4791848361492157,0.96,0.84,0.00039685026299204955
1186,0.35343649983406067,0.4791896343231201,0.96,0.84,0.00039685026299204955
1187,0.3534362316131592,0.4791940450668335,0.96,0.84,0.00039685026299204955
1188,0.3534359633922577,0.47919800877571106,0.96,0.84,0.00039685026299204955
1189,0.3534356355667114,0.4792017340660095,0.96,0.84,0.00039685026299204955
1190,0.3534352779388428,0.47920504212379456,0.96,0.84,0.00039685026299204955
1191,0.3534349799156189,0.47920817136764526,0.96,0.84,0.00039685026299204955
1192,0.3534347116947174,0.4792109727859497,0.96,0.84,0.00039685026299204955
1193,0.3534344434738159,0.47921353578567505,0.96,0.84,0.00039685026299204955
1194,0.35343414545059204,0.47921574115753174,0.96,0.84,0.00039685026299204955
1195,0.35343384742736816,0.4792178273200989,0.96,0.84,0.00039685026299204955
1196,0.3534334897994995,0.4792197048664093,0.96,0.84,0.00039685026299204955
1197,0.353433221578598,0.47922125458717346,0.96,0.84,0.00039685026299204955
1198,0.35343295335769653,0.4792225956916809,0.96,0.84,0.00039685026299204955
1199,0.35343262553215027,0.4792238175868988,0.96,0.84,0.00039685026299204955
1200,0.353432297706604,0.4792248010635376,0.96,0.84,0.00039685026299204955
1201,0.3534320592880249,0.4792255759239197,0.96,0.84,0.00039685026299204955
1202,0.3534317910671234,0.4792262613773346,0.96,0.84,0.00039685026299204955
1203,0.3534315228462219,0.4792267680168152,0.96,0.84,0.00039685026299204955
1204,0.35343119502067566,0.47922706604003906,0.96,0.84,0.00039685026299204955
1205,0.3534308969974518,0.47922733426094055,0.96,0.84,0.00039685026299204955
1206,0.3534306287765503,0.4792274832725525,0.96,0.84,0.00039685026299204955
1207,0.3534303307533264,0.47922730445861816,0.96,0.84,0.00039685026299204955
1208,0.35343003273010254,0.479227215051651,0.96,0.84,0.00039685026299204955
1209,0.35342976450920105,0.4792269170284271,0.96,0.84,0.00039685026299204955
1210,0.3534294366836548,0.4792264997959137,0.96,0.84,0.00039685026299204955
1211,0.35342922806739807,0.47922611236572266,0.96,0.84,0.00039685026299204955
1212,0.3534289300441742,0.47922542691230774,0.96,0.84,0.00039685026299204955
1213,0.3534286618232727,0.4792248010635376,0.96,0.84,0.00039685026299204955
1214,0.35342833399772644,0.4792240262031555,0.96,0.84,0.00039685026299204955
1215,0.35342803597450256,0.47922322154045105,0.96,0.84,0.00039685026299204955
1216,0.35342779755592346,0.4792221486568451,0.96,0.84,0.00039685026299204955
1217,0.35342758893966675,0.47922131419181824,0.96,0.84,0.00039685026299204955
1218,0.35342729091644287,0.4792201519012451,0.96,0.84,0.00039685026299204955
1219,0.3534269630908966,0.4792190492153168,0.96,0.84,0.00039685026299204955
1220,0.3534267544746399,0.4792179465293884,0.96,0.84,0.00039685026299204955
1221,0.35342642664909363,0.479216605424881,0.96,0.84,0.00039685026299204955
1222,0.35342612862586975,0.47921550273895264,0.96,0.84,0.00039685026299204955
1223,0.35342589020729065,0.479214072227478,0.96,0.84,0.00039685026299204955
1224,0.3534255921840668,0.4792126715183258,0.96,0.84,0.00039685026299204955
1225,0.3534253239631653,0.47921130061149597,0.96,0.84,0.00039685026299204955
1226,0.35342511534690857,0.4792097508907318,0.96,0.84,0.00039685026299204955
1227,0.3534247875213623,0.4792082905769348,0.96,0.84,0.00039685026299204955
1228,0.3534245789051056,0.47920674085617065,0.96,0.84,0.00039685026299204955
1229,0.3534242510795593,0.4792052209377289,0.96,0.84,0.00039685026299204955
1230,0.35342398285865784,0.47920361161231995,0.96,0.84,0.00039685026299204955
1231,0.35342371463775635,0.47920191287994385,0.96,0.84,0.00039685026299204955
1232,0.35342347621917725,0.4792002737522125,0.96,0.84,0.00039685026299204955
1233,0.35342320799827576,0.4791986346244812,0.96,0.84,0.00039685026299204955
1234,0.35342296957969666,0.4791969656944275,0.96,0.84,0.00039685026299204955
1235,0.3534226715564728,0.4791952967643738,0.96,0.84,0.00039685026299204955
1236,0.3534224033355713,0.4791935384273529,0.96,0.84,0.00039685026299204955
1237,0.3534221649169922,0.47919178009033203,0.96,0.84,0.00039685026299204955
1238,0.3534218668937683,0.47919002175331116,0.96,0.84,0.00039685026299204955
1239,0.3534216284751892,0.4791882038116455,0.96,0.84,0.00039685026299204955
1240,0.35342133045196533,0.47918644547462463,0.96,0.84,0.00039685026299204955
1241,0.35342109203338623,0.4791845977306366,0.96,0.84,0.00039685026299204955
1242,0.35342082381248474,0.4791828393936157,0.96,0.84,0.00031498026247371797
1243,0.35342055559158325,0.4791814386844635,0.96,0.84,0.00031498026247371797
1244,0.3534203767776489,0.4791799485683441,0.96,0.84,0.00031498026247371797
1245,0.353420227766037,0.4791785180568695,0.96,0.84,0.00031498026247371797
1246,0.3534199893474579,0.4791770279407501,0.96,0.84,0.00031498026247371797
1247,0.3534197211265564,0.4791756868362427,0.96,0.84,0.00031498026247371797
1248,0.35341957211494446,0.47917410731315613,0.96,0.84,0.00031498026247371797
1249,0.35341939330101013,0.4791727066040039,0.96,0.84,0.00031498026247371797
1250,0.35341912508010864,0.4791712462902069,0.96,0.84,0.00031498026247371797
1251,0.35341891646385193,0.4791698157787323,0.96,0.84,0.00031498026247371797
1252,0.3534187972545624,0.4791683554649353,0.96,0.84,0.00031498026247371797
1253,0.3534185290336609,0.4791668653488159,0.96,0.84,0.00031498026247371797
1254,0.35341838002204895,0.4791654944419861,0.96,0.84,0.00031498026247371797
1255,0.35341817140579224,0.4791640341281891,0.96,0.84,0.00031498026247371797
1256,0.3534179925918579,0.4791626036167145,0.96,0.84,0.00031498026247371797
1257,0.3534177839756012,0.4791611433029175,0.96,0.84,0.00031498026247371797
1258,0.3534175157546997,0.47915971279144287,0.96,0.84,0.00031498026247371797
1259,0.35341739654541016,0.47915831208229065,0.96,0.84,0.00031498026247371797
1260,0.35341721773147583,0.4791567623615265,0.96,0.84,0.00031498026247371797
1261,0.35341697931289673,0.47915536165237427,0.96,0.84,0.00031498026247371797
1262,0.3534168004989624,0.47915393114089966,0.96,0.84,0.00031498026247371797
1263,0.3534165620803833,0.4791524410247803,0.96,0.84,0.00031498026247371797
1264,0.35341641306877136,0.47915101051330566,0.96,0.84,0.00031498026247371797
1265,0.35341620445251465,0.47914955019950867,0.96,0.84,0.00031498026247371797
1266,0.3534160256385803,0.47914814949035645,0.96,0.84,0.00031498026247371797
1267,0.3534157872200012,0.47914665937423706,0.96,0.84,0.00031498026247371797
1268,0.35341566801071167,0.4791452884674072,0.96,0.84,0.00031498026247371797
1269,0.35341545939445496,0.4791438579559326,0.96,0.84,0.00031498026247371797
1270,0.35341525077819824,0.47914236783981323,0.96,0.84,0.00031498026247371797
1271,0.3534150719642639,0.4791409969329834,0.96,0.84,0.00031498026247371797
1272,0.3534148335456848,0.479139506816864,0.96,0.84,0.00031498026247371797
1273,0.3534146547317505,0.47913801670074463,0.96,0.84,0.00031498026247371797
1274,0.3534144461154938,0.47913673520088196,0.96,0.84,0.00031498026247371797
1275,0.35341426730155945,0.47913527488708496,0.96,0.84,0.00031498026247371797
1276,0.3534140884876251,0.47913384437561035,0.96,0.84,0.00031498026247371797
1277,0.3534139394760132,0.47913241386413574,0.96,0.84,0.00031498026247371797
1278,0.3534137010574341,0.47913098335266113,0.96,0.84,0.00031498026247371797
1279,0.35341349244117737,0.4791296422481537,0.96,0.84,0.00031498026247371797
1280,0.35341331362724304,0.4791281819343567,0.96,0.84,0.00031498026247371797
1281,0.3534131348133087,0.47912678122520447,0.96,0.84,0.00031498026247371797
1282,0.353412926197052,0.4791254699230194,0.96,0.84,0.00031498026247371797
1283,0.3534127473831177,0.4791240990161896,0.96,0.84,0.00031498026247371797
1284,0.3534126281738281,0.47912269830703735,0.96,0.84,0.00031498026247371797
1285,0.3534124493598938,0.47912129759788513,0.96,0.84,0.00031498026247371797
1286,0.3534122109413147,0.4791198968887329,0.96,0.84,0.00031498026247371797
1287,0.35341206192970276,0.47911861538887024,0.96,0.84,0.00031498026247371797
1288,0.35341182351112366,0.479117214679718,0.96,0.84,0.00031498026247371797
1289,0.35341164469718933,0.47911587357521057,0.96,0.84,0.00031498026247371797
1290,0.3534114360809326,0.47911450266838074,0.96,0.84,0.00031498026247371797
1291,0.3534112572669983,0.47911322116851807,0.96,0.84,0.00031498026247371797
1292,0.35341107845306396,0.4791117012500763,0.96,0.84,0.00031498026247371797
1293,0.35341089963912964,0.4791104793548584,0.96,0.84,0.00031498026247371797
1294,0.3534106910228729,0.47910916805267334,0.96,0.84,0.00031498026247371797
1295,0.3534105718135834,0.4791077673435211,0.96,0.84,0.00031498026247371797
1296,0.3534103333950043,0.4791063666343689,0.96,0.84,0.00031498026247371797
1297,0.35341012477874756,0.4791051149368286,0.96,0.84,0.00031498026247371797
1298,0.353410005569458,0.47910377383232117,0.96,0.84,0.00031498026247371797
1299,0.3534097969532013,0.4791024923324585,0.96,0.84,0.00031498026247371797
1300,0.3534095883369446,0.4791010916233063,0.96,0.84,0.00031498026247371797
1301,0.35340940952301025,0.479099839925766,0.96,0.84,0.00031498026247371797
1302,0.3534092307090759,0.4790985584259033,0.96,0.84,0.00031498026247371797
1303,0.353409081697464,0.4790972173213959,0.96,0.84,0.00031498026247371797
1304,0.3534088432788849,0.4790958762168884,0.96,0.84,0.00031498026247371797
1305,0.35340872406959534,0.47909459471702576,0.96,0.84,0.00031498026247371797
1306,0.353408545255661,0.47909337282180786,0.96,0.84,0.00031498026247371797
1307,0.3534083664417267,0.47909218072891235,0.96,0.84,0.00031498026247371797
1308,0.3534081280231476,0.4790908396244049,0.96,0.84,0.00031498026247371797
1309,0.35340797901153564,0.47908955812454224,0.96,0.84,0.00031498026247371797
1310,0.35340777039527893,0.47908833622932434,0.96,0.84,0.00031498026247371797
1311,0.353407621383667,0.47908714413642883,0.96,0.84,0.00031498026247371797
1312,0.35340744256973267,0.47908589243888855,0.96,0.84,0.00031498026247371797
1313,0.3534072935581207,0.4790846109390259,0.96,0.84,0.00031498026247371797
1314,0.353407084941864,0.47908344864845276,0.96,0.84,0.00031498026247371797
1315,0.3534069359302521,0.4790821969509125,0.96,0.84,0.00031498026247371797
1316,0.35340672731399536,0.4790809154510498,0.96,0.84,0.00031498026247371797
1317,0.3534066081047058,0.47907984256744385,0.96,0.84,0.00031498026247371797
1318,0.3534063994884491,0.47907859086990356,0.96,0.84,0.00031498026247371797
1319,0.3534061908721924,0.4790772497653961,0.96,0.84,0.00031498026247371797
1320,0.35340607166290283,0.4790761172771454,0.96,0.84,0.00031498026247371797
1321,0.35340583324432373,0.4790749251842499,0.96,0.84,0.00031498026247371797
1322,0.3534056842327118,0.47907379269599915,0.96,0.84,0.00031498026247371797
1323,0.35340550541877747,0.47907257080078125,0.96,0.84,0.00031498026247371797
1324,0.3534053564071655,0.4790712594985962,0.96,0.84,0.00031498026247371797
1325,0.3534051179885864,0.47907012701034546,0.96,0.84,0.00031498026247371797
1326,0.3534049689769745,0.4790689945220947,0.96,0.84,0.00031498026247371797
1327,0.35340481996536255,0.4790678024291992,0.96,0.84,0.00031498026247371797
1328,0.35340461134910583,0.4790666103363037,0.96,0.84,0.00031498026247371797
1329,0.3534044623374939,0.479065477848053,0.96,0.84,0.00031498026247371797
1330,0.35340434312820435,0.4790642261505127,0.96,0.84,0.00031498026247371797
1331,0.35340407490730286,0.4790630638599396,0.96,0.84,0.00031498026247371797
1332,0.3534039258956909,0.47906196117401123,0.96,0.84,0.00031498026247371797
1333,0.353403776884079,0.4790607690811157,0.96,0.84,0.00031498026247371797
1334,0.35340359807014465,0.4790596067905426,0.96,0.84,0.00031498026247371797
1335,0.3534034490585327,0.4790584444999695,0.96,0.84,0.00031498026247371797
1336,0.353403240442276,0.47905731201171875,0.96,0.84,0.00031498026247371797
1337,0.35340309143066406,0.4790562093257904,0.96,0.84,0.00031498026247371797
1338,0.35340291261672974,0.47905513644218445,0.96,0.84,0.00031498026247371797
1339,0.3534027934074402,0.47905391454696655,0.96,0.84,0.00031498026247371797
1340,0.35340258479118347,0.4790527820587158,0.96,0.84,0.00031498026247371797
1341,0.35340240597724915,0.47905170917510986,0.96,0.84,0.00031498026247371797
1342,0.3534022569656372,0.4790506660938263,0.96,0.84,0.00031498026247371797
1343,0.35340210795402527,0.4790494441986084,0.96,0.84,0.00031498026247371797
1344,0.35340195894241333,0.47904834151268005,0.96,0.84,0.00031498026247371797
1345,0.35340172052383423,0.4790472388267517,0.96,0.84,0.00031498026247371797
1346,0.3534016013145447,0.4790462255477905,0.96,0.84,0.00031498026247371797
1347,0.35340142250061035,0.4790450930595398,0.96,0.84,0.00031498026247371797
1348,0.3534012734889984,0.4790440499782562,0.96,0.84,0.00031498026247371797
1349,0.3534010946750641,0.47904297709465027,0.96,0.84,0.00031498026247371797
1350,0.35340091586112976,0.4790418744087219,0.96,0.84,0.00031498026247371797
1351,0.35340073704719543,0.47904080152511597,0.96,0.84,0.00031498026247371797
1352,0.3534005880355835,0.47903972864151,0.96,0.84,0.00031498026247371797
1353,0.3534003794193268,0.47903868556022644,0.96,0.84,0.00031498026247371797
1354,0.35340023040771484,0.47903767228126526,0.96,0.84,0.00031498026247371797
1355,0.3534000813961029,0.4790365993976593,0.96,0.84,0.00031498026247371797
1356,0.35339993238449097,0.4790356457233429,0.96,0.84,0.00031498026247371797
1357,0.35339978337287903,0.47903457283973694,0.96,0.84,0.00031498026247371797
1358,0.3533996343612671,0.47903355956077576,0.96,0.84,0.00031498026247371797
1359,0.3533994257450104,0.479032427072525,0.96,0.84,0.00031498026247371797
1360,0.35339924693107605,0.47903144359588623,0.96,0.84,0.00031498026247371797
1361,0.3533991277217865,0.4790303707122803,0.96,0.84,0.00031498026247371797
1362,0.3533989191055298,0.47902941703796387,0.96,0.84,0.00031498026247371797
1363,0.35339877009391785,0.4790284335613251,0.96,0.84,0.00031498026247371797
1364,0.3533986210823059,0.47902733087539673,0.96,0.84,0.00031498026247371797
1365,0.3533984422683716,0.47902634739875793,0.96,0.84,0.00031498026247371797
1366,0.35339829325675964,0.47902530431747437,0.96,0.84,0.00031498026247371797
1367,0.3533981740474701,0.47902432084083557,0.96,0.84,0.00031498026247371797
1368,0.35339802503585815,0.479023277759552,0.96,0.84,0.0002499999999999997
1369,0.35339778661727905,0.47902247309684753,0.96,0.84,0.0002499999999999997
1370,0.3533977270126343,0.4790216386318207,0.96,0.84,0.0002499999999999997
1371,0.3533976078033447,0.4790208041667938,0.96,0.84,0.0002499999999999997
1372,0.3533974587917328,0.4790200889110565,0.96,0.84,0.0002499999999999997
1373,0.35339733958244324,0.47901925444602966,0.96,0.84,0.0002499999999999997
1374,0.35339710116386414,0.47901856899261475,0.96,0.84,0.0002499999999999997
1375,0.353397011756897,0.4790177643299103,0.96,0.84,0.0002499999999999997
1376,0.3533969223499298,0.4790169894695282,0.96,0.84,0.0002499999999999997
1377,0.35339680314064026,0.4790162146091461,0.96,0.84,0.0002499999999999997
1378,0.3533967137336731,0.4790154695510864,0.96,0.84,0.0002499999999999997
1379,0.3533965051174164,0.4790147542953491,0.96,0.84,0.0002499999999999997
1380,0.3533964157104492,0.47901397943496704,0.96,0.84,0.0002499999999999997
1381,0.35339629650115967,0.47901326417922974,0.96,0.84,0.0002499999999999997
1382,0.35339614748954773,0.4790123999118805,0.96,0.84,0.0002499999999999997
1383,0.3533960282802582,0.4790117144584656,0.96,0.84,0.0002499999999999997
1384,0.35339590907096863,0.47901099920272827,0.96,0.84,0.0002499999999999997
1385,0.3533957600593567,0.4790102243423462,0.96,0.84,0.0002499999999999997
1386,0.35339564085006714,0.4790095090866089,0.96,0.84,0.0002499999999999997
1387,0.3533955514431,0.4790087044239044,0.96,0.84,0.0002499999999999997
1388,0.3533954620361328,0.4790079891681671,0.96,0.84,0.0002499999999999997
1389,0.3533953130245209,0.4790073037147522,0.96,0.84,0.0002499999999999997
1390,0.35339516401290894,0.47900646924972534,0.96,0.84,0.0002499999999999997
1391,0.3533950448036194,0.4790057837963104,0.96,0.84,0.0002499999999999997
1392,0.35339489579200745,0.47900497913360596,0.96,0.84,0.0002499999999999997
1393,0.3533948063850403,0.47900429368019104,0.96,0.84,0.0002499999999999997
1394,0.3533947467803955,0.47900351881980896,0.96,0.84,0.0002499999999999997
1395,0.3533945381641388,0.47900280356407166,0.96,0.84,0.0002499999999999997
1396,0.35339441895484924,0.47900208830833435,0.96,0.84,0.0002499999999999997
1397,0.3533942699432373,0.47900131344795227,0.96,0.84,0.0002499999999999997
1398,0.35339421033859253,0.47900062799453735,0.96,0.84,0.0002499999999999997
1399,0.3533940613269806,0.47899991273880005,0.96,0.84,0.0002499999999999997
1400,0.35339394211769104,0.47899916768074036,0.96,0.84,0.0002499999999999997
1401,0.3533938527107239,0.47899845242500305,0.96,0.84,0.0002499999999999997
1402,0.35339370369911194,0.47899776697158813,0.96,0.84,0.0002499999999999997
1403,0.3533935844898224,0.4789971113204956,0.96,0.84,0.0002499999999999997
1404,0.35339343547821045,0.47899630665779114,0.96,0.84,0.0002499999999999997
1405,0.3533933758735657,0.4789957106113434,0.96,0.84,0.0002499999999999997
1406,0.3533932566642761,0.4789949655532837,0.96,0.84,0.0002499999999999997
1407,0.3533930480480194,0.478994220495224,0.96,0.84,0.0002499999999999997
1408,0.35339295864105225,0.47899356484413147,0.96,0.84,0.0002499999999999997
1409,0.3533928692340851,0.47899287939071655,0.96,0.84,0.0002499999999999997
1410,0.35339272022247314,0.47899219393730164,0.96,0.84,0.0002499999999999997
1411,0.3533926010131836,0.4789915084838867,0.96,0.84,0.0002499999999999997
1412,0.35339248180389404,0.4789907932281494,0.96,0.84,0.0002499999999999997
1413,0.35339242219924927,0.47899019718170166,0.96,0.84,0.0002499999999999997
1414,0.35339224338531494,0.47898948192596436,0.96,0.84,0.0002499999999999997
1415,0.3533920645713806,0.47898879647254944,0.96,0.84,0.0002499999999999997
1416,0.35339200496673584,0.4789882004261017,0.96,0.84,0.0002499999999999997
1417,0.3533919155597687,0.47898751497268677,0.96,0.84,0.0002499999999999997
1418,0.35339176654815674,0.4789867699146271,0.96,0.84,0.0002499999999999997
1419,0.3533916771411896,0.47898614406585693,0.96,0.84,0.0002499999999999997
1420,0.3533915579319,0.4789855182170868,0.96,0.84,0.0002499999999999997
1421,0.35339146852493286,0.4789848029613495,0.96,0.84,0.0002499999999999997
1422,0.35339125990867615,0.47898414731025696,0.96,0.84,0.0002499999999999997
1423,0.35339120030403137,0.4789833724498749,0.96,0.84,0.0002499999999999997
1424,0.3533910810947418,0.4789827764034271,0.96,0.84,0.0002499999999999997
1425,0.35339096188545227,0.47898200154304504,0.96,0.84,0.0002499999999999997
1426,0.35339081287384033,0.4789813160896301,0.96,0.84,0.0002499999999999997
1427,0.3533906936645508,0.4789807200431824,0.96,0.84,0.0002499999999999997
1428,0.35339057445526123,0.4789799749851227,0.96,0.84,0.0002499999999999997
1429,0.3533904552459717,0.47897934913635254,0.96,0.84,0.0002499999999999997
1430,0.35339030623435974,0.47897869348526,0.96,0.84,0.0002499999999999997
1431,0.35339027643203735,0.4789780080318451,0.96,0.84,0.0002499999999999997
1432,0.353390097618103,0.47897738218307495,0.96,0.84,0.0002499999999999997
1433,0.3533899188041687,0.47897669672966003,0.96,0.84,0.0002499999999999997
1434,0.3533898890018463,0.47897613048553467,0.96,0.84,0.0002499999999999997
1435,0.35338976979255676,0.47897544503211975,0.96,0.84,0.0002499999999999997
1436,0.3533896207809448,0.4789749085903168,0.96,0.84,0.0002499999999999997
1437,0.3533895015716553,0.47897422313690186,0.96,0.84,0.0002499999999999997
1438,0.3533893823623657,0.4789735674858093,0.96,0.84,0.0002499999999999997
1439,0.35338932275772095,0.47897300124168396,0.96,0.84,0.0002499999999999997
1440,0.353389173746109,0.47897234559059143,0.96,0.84,0.0002499999999999997
1441,0.35338905453681946,0.4789717495441437,0.96,0.84,0.0002499999999999997
1442,0.3533889353275299,0.47897103428840637,0.96,0.84,0.0002499999999999997
1443,0.35338881611824036,0.47897040843963623,0.96,0.84,0.0002499999999999997
1444,0.3533886969089508,0.4789697229862213,0.96,0.84,0.0002499999999999997
1445,0.35338860750198364,0.47896912693977356,0.96,0.84,0.0002499999999999997
1446,0.3533885180950165,0.47896847128868103,0.96,0.84,0.0002499999999999997
1447,0.35338833928108215,0.4789677858352661,0.96,0.84,0.0002499999999999997
1448,0.3533882200717926,0.4789672791957855,0.96,0.84,0.0002499999999999997
1449,0.35338813066482544,0.47896653413772583,0.96,0.84,0.0002499999999999997
1450,0.3533880114555359,0.4789659082889557,0.96,0.84,0.0002499999999999997
1451,0.3533879220485687,0.47896525263786316,0.96,0.84,0.0002499999999999997
1452,0.35338783264160156,0.4789646565914154,0.96,0.84,0.0002499999999999997
1453,0.3533876836299896,0.47896409034729004,0.96,0.84,0.0002499999999999997
1454,0.3533875644207001,0.47896334528923035,0.96,0.84,0.0002499999999999997
1455,0.35338741540908813,0.4789627194404602,0.96,0.84,0.0002499999999999997
1456,0.3533872663974762,0.4789620637893677,0.96,0.84,0.0002499999999999997
1457,0.35338717699050903,0.4789614975452423,0.96,0.84,0.0002499999999999997
1458,0.35338711738586426,0.47896090149879456,0.96,0.84,0.0002499999999999997
1459,0.3533869981765747,0.4789603054523468,0.96,0.84,0.0002499999999999997
1460,0.35338684916496277,0.47895973920822144,0.96,0.84,0.0002499999999999997
1461,0.353386789560318,0.47895920276641846,0.96,0.84,0.0002499999999999997
1462,0.35338664054870605,0.4789585471153259,0.96,0.84,0.0002499999999999997
1463,0.3533865213394165,0.4789579510688782,0.96,0.84,0.0002499999999999997
1464,0.35338643193244934,0.47895729541778564,0.96,0.84,0.0002499999999999997
1465,0.3533863127231598,0.4789566695690155,0.96,0.84,0.0002499999999999997
1466,0.35338616371154785,0.47895610332489014,0.96,0.84,0.0002499999999999997
1467,0.3533860743045807,0.4789555072784424,0.96,0.84,0.0002499999999999997
1468,0.35338592529296875,0.47895491123199463,0.96,0.84,0.0002499999999999997
1469,0.3533858358860016,0.47895440459251404,0.96,0.84,0.00019842513149602464
1470,0.3533857762813568,0.47895392775535583,0.96,0.84,0.00019842513149602464
1471,0.35338565707206726,0.47895339131355286,0.96,0.84,0.00019842513149602464
1472,0.3533855378627777,0.4789530038833618,0.96,0.84,0.00019842513149602464
1473,0.35338547825813293,0.4789524972438812,0.96,0.84,0.00019842513149602464
1474,0.35338538885116577,0.47895199060440063,0.96,0.84,0.00019842513149602464
1475,0.353385329246521,0.47895145416259766,0.96,0.84,0.00019842513149602464
1476,0.35338521003723145,0.4789510667324066,0.96,0.84,0.00019842513149602464
1477,0.3533851206302643,0.47895050048828125,0.96,0.84,0.00019842513149602464
1478,0.3533850610256195,0.4789500832557678,0.96,0.84,0.00019842513149602464
1479,0.35338497161865234,0.478949636220932,0.96,0.84,0.00019842513149602464
1480,0.3533848524093628,0.4789491593837738,0.96,0.84,0.00019842513149602464
1481,0.353384792804718,0.4789487421512604,0.96,0.84,0.00019842513149602464
1482,0.35338467359542847,0.47894829511642456,0.96,0.84,0.00019842513149602464
1483,0.3533845841884613,0.4789477288722992,0.96,0.84,0.00019842513149602464
1484,0.35338446497917175,0.4789472818374634,0.96,0.84,0.00019842513149602464
1485,0.353384405374527,0.47894683480262756,0.96,0.84,0.00019842513149602464
1486,0.3533842861652374,0.47894638776779175,0.96,0.84,0.00019842513149602464
1487,0.35338425636291504,0.47894588112831116,0.96,0.84,0.00019842513149602464
1488,0.3533841371536255,0.47894543409347534,0.96,0.84,0.00019842513149602464
1489,0.3533840477466583,0.4789450168609619,0.96,0.84,0.00019842513149602464
1490,0.3533839285373688,0.47894448041915894,0.96,0.84,0.00019842513149602464
1491,0.3533838987350464,0.47894418239593506,0.96,0.84,0.00019842513149602464
1492,0.3533838391304016,0.47894373536109924,0.96,0.84,0.00019842513149602464
1493,0.35338377952575684,0.47894325852394104,0.96,0.84,0.00019842513149602464
1494,0.3533836603164673,0.47894275188446045,0.96,0.84,0.00019842513149602464
1495,0.35338351130485535,0.478942334651947,0.96,0.84,0.00019842513149602464
1496,0.35338345170021057,0.47894203662872314,0.96,0.84,0.00019842513149602464
1497,0.353383332490921,0.4789414703845978,0.96,0.84,0.00019842513149602464
1498,0.353383332490921,0.47894105315208435,0.96,0.84,0.00019842513149602464
1499,0.35338321328163147,0.47894060611724854,0.96,0.84,0.00019842513149602464
1500,0.3533830940723419,0.4789401590824127,0.96,0.84,0.00019842513149602464
1501,0.35338306427001953,0.4789397120475769,0.96,0.84,0.00019842513149602464
1502,0.3533829152584076,0.47893932461738586,0.96,0.84,0.00019842513149602464
1503,0.35338282585144043,0.4789388179779053,0.96,0.84,0.00019842513149602464
1504,0.3533827066421509,0.47893834114074707,0.96,0.84,0.00019842513149602464
1505,0.3533826470375061,0.4789379835128784,0.96,0.84,0.00019842513149602464
1506,0.35338255763053894,0.4789375066757202,0.96,0.84,0.00019842513149602464
1507,0.35338249802589417,0.478937029838562,0.96,0.84,0.00019842513149602464
1508,0.353382408618927,0.47893664240837097,0.96,0.84,0.00019842513149602464
1509,0.35338228940963745,0.47893616557121277,0.96,0.84,0.00019842513149602464
1510,0.35338225960731506,0.47893568873405457,0.96,0.84,0.00019842513149602464
1511,0.3533821403980255,0.4789353609085083,0.96,0.84,0.00019842513149602464
1512,0.3533821105957031,0.4789348542690277,0.96,0.84,0.00019842513149602464
1513,0.3533819615840912,0.4789344370365143,0.96,0.84,0.00019842513149602464
1514,0.3533819317817688,0.47893399000167847,0.96,0.84,0.00019842513149602464
1515,0.3533817529678345,0.4789336025714874,0.96,0.84,0.00019842513149602464
1516,0.3533817231655121,0.47893309593200684,0.96,0.84,0.00019842513149602464
1517,0.35338160395622253,0.4789327383041382,0.96,0.84,0.00019842513149602464
1518,0.35338151454925537,0.47893235087394714,0.96,0.84,0.00019842513149602464
1519,0.3533814549446106,0.47893184423446655,0.96,0.84,0.00019842513149602464
1520,0.3533813953399658,0.4789315462112427,0.96,0.84,0.00019842513149602464
1521,0.35338133573532104,0.4789310693740845,0.96,0.84,0.00019842513149602464
1522,0.3533812463283539,0.47893065214157104,0.96,0.84,0.00019842513149602464
1523,0.3533811569213867,0.47893020510673523,0.96,0.84,0.00019842513149602464
1524,0.35338103771209717,0.4789297878742218,0.96,0.84,0.00019842513149602464
1525,0.35338088870048523,0.4789293706417084,0.96,0.84,0.00019842513149602464
1526,0.35338088870048523,0.47892898321151733,0.96,0.84,0.00019842513149602464
1527,0.35338079929351807,0.4789285659790039,0.96,0.84,0.00019842513149602464
1528,0.3533807098865509,0.4789281189441681,0.96,0.84,0.00019842513149602464
1529,0.35338059067726135,0.4789276421070099,0.96,0.84,0.00019842513149602464
1530,0.3533805012702942,0.4789271950721741,0.96,0.84,0.00019842513149602464
1531,0.3533804714679718,0.47892680764198303,0.96,0.84,0.00019842513149602464
1532,0.35338035225868225,0.47892630100250244,0.96,0.84,0.00019842513149602464
1533,0.3533802926540375,0.47892606258392334,0.96,0.84,0.00019842513149602464
1534,0.3533802330493927,0.47892555594444275,0.96,0.84,0.00019842513149602464
1535,0.35338008403778076,0.4789251387119293,0.96,0.84,0.00019842513149602464
1536,0.3533800542354584,0.4789246618747711,0.96,0.84,0.00019842513149602464
1537,0.3533799350261688,0.4789241850376129,0.96,0.84,0.00019842513149602464
1538,0.3533798158168793,0.47892382740974426,0.96,0.84,0.00019842513149602464
1539,0.3533797860145569,0.47892335057258606,0.96,0.84,0.00019842513149602464
1540,0.35337966680526733,0.47892308235168457,0.96,0.84,0.00019842513149602464
1541,0.35337963700294495,0.47892260551452637,0.96,0.84,0.00019842513149602464
1542,0.3533795475959778,0.4789222478866577,0.96,0.84,0.00019842513149602464
1543,0.35337939858436584,0.4789217412471771,0.96,0.84,0.00019842513149602464
1544,0.35337936878204346,0.47892138361930847,0.96,0.84,0.00019842513149602464
1545,0.3533792495727539,0.47892093658447266,0.96,0.84,0.00019842513149602464
1546,0.3533792197704315,0.478920578956604,0.96,0.84,0.00019842513149602464
1547,0.35337910056114197,0.4789201319217682,0.96,0.84,0.00019842513149602464
1548,0.3533790111541748,0.4789198040962219,0.96,0.84,0.00019842513149602464
1549,0.35337889194488525,0.4789193868637085,0.96,0.84,0.00019842513149602464
1550,0.35337886214256287,0.4789189398288727,0.96,0.84,0.00019842513149602464
1551,0.3533788025379181,0.47891858220100403,0.96,0.84,0.00019842513149602464
1552,0.35337868332862854,0.478918194770813,0.96,0.84,0.00019842513149602464
1553,0.353378564119339,0.4789176881313324,0.96,0.84,0.00019842513149602464
1554,0.3533785343170166,0.47891736030578613,0.96,0.84,0.00019842513149602464
1555,0.35337844491004944,0.4789169728755951,0.96,0.84,0.00019842513149602464
1556,0.3533782958984375,0.4789164364337921,0.96,0.84,0.00019842513149602464
1557,0.3533782660961151,0.47891613841056824,0.96,0.84,0.00019842513149602464
1558,0.35337820649147034,0.4789157211780548,0.96,0.84,0.00019842513149602464
1559,0.3533781170845032,0.47891536355018616,0.96,0.84,0.00019842513149602464
1560,0.353378027677536,0.47891494631767273,0.96,0.84,0.00019842513149602464
1561,0.35337793827056885,0.4789144992828369,0.96,0.84,0.00019842513149602464
1562,0.3533778786659241,0.47891417145729065,0.96,0.84,0.00019842513149602464
1563,0.3533777892589569,0.4789137542247772,0.96,0.84,0.00019842513149602464
1564,0.35337764024734497,0.47891342639923096,0.96,0.84,0.00019842513149602464
1565,0.3533776104450226,0.47891294956207275,0.96,0.84,0.00019842513149602464
1566,0.3533775806427002,0.4789125323295593,0.96,0.84,0.00019842513149602464
1567,0.35337743163108826,0.47891223430633545,0.96,0.84,0.00019842513149602464
1568,0.3533773422241211,0.4789118468761444,0.96,0.84,0.00019842513149602464
1569,0.35337725281715393,0.47891148924827576,0.96,0.84,0.00019842513149602464
1570,0.35337722301483154,0.4789111316204071,0.96,0.84,0.00019842513149602464
1571,0.35337716341018677,0.47891074419021606,0.96,0.84,0.00019842513149602464
1572,0.3533770442008972,0.47891032695770264,0.96,0.84,0.00019842513149602464
1573,0.35337698459625244,0.4789099395275116,0.96,0.84,0.00019842513149602464
1574,0.3533768951892853,0.47890961170196533,0.96,0.84,0.00019842513149602464
1575,0.3533768057823181,0.47890913486480713,0.96,0.84,0.00019842513149602464
1576,0.35337668657302856,0.47890880703926086,0.96,0.84,0.00019842513149602464
1577,0.3533766269683838,0.4789084196090698,0.96,0.84,0.00019842513149602464
1578,0.3533765375614166,0.47890815138816833,0.96,0.84,0.00019842513149602464
1579,0.35337647795677185,0.4789077043533325,0.96,0.84,0.00019842513149602464
1580,0.3533763587474823,0.4789073169231415,0.96,0.84,0.00019842513149602464
1581,0.3533762991428375,0.47890692949295044,0.96,0.84,0.00019842513149602464
1582,0.35337620973587036,0.4789066016674042,0.96,0.84,0.00019842513149602464
1583,0.3533761501312256,0.47890621423721313,0.96,0.84,0.00019842513149602464
1584,0.35337603092193604,0.4789058268070221,0.96,0.84,0.00019842513149602464
1585,0.35337597131729126,0.47890549898147583,0.96,0.84,0.00019842513149602464
1586,0.3533758819103241,0.4789051413536072,0.96,0.84,0.00019842513149602464
1587,0.3533758223056793,0.4789046347141266,0.96,0.84,0.00019842513149602464
1588,0.35337573289871216,0.4789044260978699,0.96,0.84,0.00019842513149602464
1589,0.3533756732940674,0.47890400886535645,0.96,0.84,0.00019842513149602464
1590,0.3533755838871002,0.4789036214351654,0.96,0.84,0.00019842513149602464
1591,0.35337552428245544,0.478903204202652,0.96,0.84,0.00019842513149602464
1592,0.3533753454685211,0.4789028465747833,0.96,0.84,0.00019842513149602464
1593,0.35337531566619873,0.4789023995399475,0.96,0.84,0.00019842513149602464
1594,0.35337528586387634,0.4789022207260132,0.96,0.84,0.00019842513149602464
1595,0.3533751964569092,0.478901743888855,0.96,0.84,0.00019842513149602464
1596,0.35337507724761963,0.4789014458656311,0.96,0.84,0.00019842513149602464
1597,0.35337498784065247,0.47890108823776245,0.96,0.84,0.00019842513149602464
1598,0.3533749282360077,0.4789007902145386,0.96,0.84,0.00019842513149602464
1599,0.35337477922439575,0.4789002537727356,0.96,0.84,0.00019842513149602464
1600,0.35337477922439575,0.4788999557495117,0.96,0.84,0.00019842513149602464
1601,0.3533746600151062,0.4788995385169983,0.96,0.84,0.00019842513149602464
1602,0.3533746004104614,0.47889918088912964,0.96,0.84,0.00019842513149602464
1603,0.35337451100349426,0.4788988530635834,0.96,0.84,0.00019842513149602464
1604,0.3533744513988495,0.4788985550403595,0.96,0.84,0.00019842513149602464
1605,0.35337433218955994,0.4788980782032013,0.96,0.84,0.00019842513149602464
1606,0.3533742427825928,0.4788977801799774,0.96,0.84,0.00019842513149602464
1607,0.3533742427825928,0.478897362947464,0.96,0.84,0.00019842513149602464
1608,0.3533741235733032,0.47889700531959534,0.96,0.84,0.00019842513149602464
1609,0.35337403416633606,0.4788966476917267,0.96,0.84,0.00019842513149602464
1610,0.3533739447593689,0.47889623045921326,0.96,0.84,0.00019842513149602464
1611,0.3533738851547241,0.4788958430290222,0.96,0.84,0.00019842513149602464
1612,0.35337379574775696,0.47889548540115356,0.96,0.84,0.00019842513149602464
1613,0.3533737063407898,0.4788950979709625,0.96,0.84,0.00019842513149602464
1614,0.353373646736145,0.47889474034309387,0.96,0.84,0.00019842513149602464
1615,0.35337355732917786,0.47889435291290283,0.96,0.84,0.00019842513149602464
1616,0.3533734977245331,0.47889408469200134,0.96,0.84,0.00019842513149602464
1617,0.3533734083175659,0.4788936972618103,0.96,0.84,0.00019842513149602464
1618,0.353373259305954,0.47889336943626404,0.96,0.84,0.00019842513149602464
1619,0.3533731698989868,0.4788930118083954,0.96,0.84,0.00019842513149602464
1620,0.3533732295036316,0.4788926839828491,0.96,0.84,0.00019842513149602464
1621,0.35337308049201965,0.4788922965526581,0.96,0.84,0.00019842513149602464
1622,0.3533729910850525,0.4788919687271118,0.96,0.84,0.00019842513149602464
1623,0.3533729612827301,0.4788915514945984,0.96,0.84,0.00019842513149602464
1624,0.35337284207344055,0.4788912236690521,0.96,0.84,0.00019842513149602464
1625,0.35337281227111816,0.47889095544815063,0.96,0.84,0.00019842513149602464
1626,0.3533726930618286,0.4788905382156372,0.96,0.84,0.00019842513149602464
1627,0.3533726930618286,0.47889018058776855,0.96,0.84,0.00019842513149602464
1628,0.35337257385253906,0.47888991236686707,0.96,0.84,0.00019842513149602464
1629,0.3533724248409271,0.4788895547389984,0.96,0.84,0.00019842513149602464
1630,0.35337239503860474,0.4788891077041626,0.96,0.84,0.00019842513149602464
1631,0.3533723056316376,0.4788888692855835,0.96,0.84,0.00019842513149602464
1632,0.3533722162246704,0.4788884222507477,0.96,0.84,0.00019842513149602464
1633,0.35337212681770325,0.4788880944252014,0.96,0.84,0.00015749013123685888
1634,0.35337206721305847,0.47888779640197754,0.96,0.84,0.00015749013123685888
1635,0.3533720076084137,0.47888755798339844,0.96,0.84,0.00015749013123685888
1636,0.35337191820144653,0.4788873791694641,0.96,0.84,0.00015749013123685888
1637,0.35337188839912415,0.478887140750885,0.96,0.84,0.00015749013123685888
1638,0.353371798992157,0.47888675332069397,0.96,0.84,0.00015749013123685888
1639,0.353371798992157,0.47888651490211487,0.96,0.84,0.00015749013123685888
1640,0.3533717095851898,0.478886216878891,0.96,0.84,0.00015749013123685888
1641,0.35337159037590027,0.4788859486579895,0.96,0.84,0.00015749013123685888
1642,0.3533715307712555,0.4788857400417328,0.96,0.84,0.00015749013123685888
