,train loss,val loss,train acc,val acc,lr
0,0.6957950592041016,0.6872755289077759,0.38,0.66,0.001
1,0.6843637824058533,0.6798157691955566,0.76,0.67,0.001
2,0.6730548739433289,0.6705248951911926,0.76,0.67,0.001
3,0.659217119216919,0.6575989723205566,0.75,0.64,0.001
4,0.6402465105056763,0.6399303078651428,0.73,0.64,0.001
5,0.6139590740203857,0.6221912503242493,0.72,0.65,0.001
6,0.5847024321556091,0.6213562488555908,0.72,0.66,0.001
7,0.5750909447669983,0.6204406023025513,0.71,0.65,0.001
8,0.5700981020927429,0.6029033064842224,0.7,0.66,0.001
9,0.5408008098602295,0.598382294178009,0.74,0.71,0.001
10,0.5473082065582275,0.5919679403305054,0.77,0.71,0.001
11,0.5394043922424316,0.5842249393463135,0.77,0.73,0.001
12,0.5187576413154602,0.5801713466644287,0.82,0.72,0.001
13,0.5218523144721985,0.5748694539070129,0.79,0.72,0.001
14,0.5233280658721924,0.5702658295631409,0.77,0.74,0.001
15,0.5088685750961304,0.5737467408180237,0.81,0.72,0.001
16,0.5019248723983765,0.5769951343536377,0.81,0.71,0.001
17,0.5069400668144226,0.5742314457893372,0.79,0.72,0.001
18,0.49911144375801086,0.5635306239128113,0.79,0.74,0.001
19,0.4865414500236511,0.554408848285675,0.83,0.76,0.001
20,0.49109840393066406,0.5540145635604858,0.8,0.75,0.001
21,0.48484253883361816,0.5615280270576477,0.81,0.71,0.001
22,0.4776403307914734,0.5667304396629333,0.84,0.71,0.001
23,0.4814265966415405,0.5593392848968506,0.83,0.73,0.001
24,0.4697614014148712,0.5567488670349121,0.86,0.74,0.001
25,0.47105348110198975,0.55913907289505,0.86,0.74,0.001
26,0.4636869728565216,0.5613359212875366,0.87,0.74,0.001
27,0.4627324044704437,0.5616039037704468,0.86,0.72,0.001
28,0.4621644616127014,0.5585713386535645,0.86,0.73,0.001
29,0.457613080739975,0.5526214241981506,0.86,0.76,0.001
30,0.45300740003585815,0.5478357076644897,0.88,0.76,0.001
31,0.4531823694705963,0.5459193587303162,0.88,0.77,0.001
32,0.44720005989074707,0.5436496138572693,0.87,0.78,0.001
33,0.44626757502555847,0.5416589975357056,0.88,0.77,0.001
34,0.4438401460647583,0.5389651656150818,0.89,0.79,0.001
35,0.4398301839828491,0.5352092385292053,0.89,0.78,0.001
36,0.4396885335445404,0.5316633582115173,0.89,0.79,0.001
37,0.43542972207069397,0.5319848656654358,0.89,0.79,0.001
38,0.4356687068939209,0.5288814306259155,0.9,0.79,0.001
39,0.4327186644077301,0.5278363823890686,0.9,0.79,0.001
40,0.42991122603416443,0.5270259976387024,0.9,0.79,0.001
41,0.42888233065605164,0.526047945022583,0.89,0.79,0.001
42,0.4275606870651245,0.5235841870307922,0.9,0.79,0.001
43,0.4266463816165924,0.5197664499282837,0.9,0.8,0.001
44,0.42592406272888184,0.5176677703857422,0.9,0.8,0.001
45,0.42533257603645325,0.5169625878334045,0.9,0.8,0.001
46,0.42449337244033813,0.5174851417541504,0.9,0.8,0.001
47,0.42364266514778137,0.5191683769226074,0.9,0.79,0.001
48,0.4228830635547638,0.5217280387878418,0.9,0.79,0.001
49,0.42233553528785706,0.5215048789978027,0.9,0.79,0.001
50,0.4216327369213104,0.5187799334526062,0.9,0.79,0.001
51,0.4208112955093384,0.5162899494171143,0.9,0.8,0.001
52,0.4202398359775543,0.5145025253295898,0.9,0.8,0.001
53,0.41987115144729614,0.5136720538139343,0.9,0.8,0.001
54,0.4199471175670624,0.5125607848167419,0.9,0.8,0.001
55,0.42210766673088074,0.5205426216125488,0.89,0.78,0.001
56,0.4335967004299164,0.5082939267158508,0.87,0.81,0.001
57,0.42203593254089355,0.5108078122138977,0.89,0.8,0.001
58,0.41789478063583374,0.5133258700370789,0.9,0.8,0.001
59,0.41982710361480713,0.5078660249710083,0.9,0.81,0.001
60,0.4220006465911865,0.5164760947227478,0.89,0.8,0.001
61,0.41783902049064636,0.5178198218345642,0.9,0.8,0.001
62,0.41786304116249084,0.5153585076332092,0.9,0.79,0.001
63,0.4203687310218811,0.5186452865600586,0.89,0.8,0.001
64,0.41739022731781006,0.517346203327179,0.9,0.8,0.001
65,0.4168913960456848,0.518146276473999,0.9,0.79,0.001
66,0.41805440187454224,0.5199835300445557,0.9,0.79,0.001
67,0.41633903980255127,0.5204965472221375,0.9,0.79,0.001
68,0.41656529903411865,0.515316903591156,0.9,0.8,0.001
69,0.4173882305622101,0.5215600728988647,0.9,0.79,0.001
70,0.4158128499984741,0.5216116905212402,0.9,0.79,0.001
71,0.416030615568161,0.517774224281311,0.9,0.79,0.001
72,0.41644537448883057,0.5220956206321716,0.9,0.79,0.001
73,0.4150712490081787,0.5207946300506592,0.9,0.79,0.001
74,0.41585788130760193,0.5216099619865417,0.9,0.79,0.001
75,0.41546741127967834,0.521897554397583,0.9,0.79,0.001
76,0.4149467349052429,0.5197216272354126,0.9,0.79,0.001
77,0.4151698350906372,0.5209308862686157,0.9,0.79,0.001
78,0.414523720741272,0.5210849642753601,0.9,0.79,0.001
79,0.4147765040397644,0.5208025574684143,0.9,0.79,0.001
80,0.41431838274002075,0.5196976661682129,0.9,0.79,0.001
81,0.41448017954826355,0.5198314785957336,0.9,0.79,0.001
82,0.41414710879325867,0.5186460018157959,0.9,0.79,0.001
83,0.4142311215400696,0.518082857131958,0.9,0.79,0.001
84,0.41403254866600037,0.5175973773002625,0.9,0.79,0.001
85,0.4140593707561493,0.5164576172828674,0.9,0.8,0.001
86,0.4139484465122223,0.5150797367095947,0.9,0.8,0.001
87,0.4139508903026581,0.5146095156669617,0.9,0.8,0.001
88,0.4138731062412262,0.5143117308616638,0.9,0.8,0.001
89,0.4138675928115845,0.5139675736427307,0.9,0.8,0.001
90,0.4138149321079254,0.5137953162193298,0.9,0.8,0.001
91,0.41378897428512573,0.5137119889259338,0.9,0.8,0.001
92,0.4137626886367798,0.5136824250221252,0.9,0.8,0.001
93,0.41372784972190857,0.5137788653373718,0.9,0.8,0.001
94,0.4137289822101593,0.5139449834823608,0.9,0.8,0.001
95,0.413675993680954,0.5140777230262756,0.9,0.8,0.001
96,0.4136883616447449,0.5144901871681213,0.9,0.8,0.001
97,0.4136439263820648,0.5152224898338318,0.9,0.8,0.001
98,0.4136364459991455,0.5158077478408813,0.9,0.8,0.001
99,0.41362568736076355,0.5159834623336792,0.9,0.8,0.001
100,0.4135957658290863,0.5160751938819885,0.9,0.8,0.001
101,0.4135971963405609,0.5166439414024353,0.9,0.8,0.001
102,0.4135785698890686,0.5174819827079773,0.9,0.79,0.001
103,0.4135649800300598,0.5179427862167358,0.9,0.79,0.001
104,0.413564532995224,0.5179031491279602,0.9,0.79,0.001
105,0.41354575753211975,0.5175735950469971,0.9,0.79,0.001
106,0.41353875398635864,0.5174556970596313,0.9,0.79,0.001
107,0.4135335087776184,0.5177079439163208,0.9,0.79,0.001
108,0.41351795196533203,0.5179369449615479,0.9,0.79,0.001
109,0.41351318359375,0.5178470611572266,0.9,0.79,0.001
110,0.41350680589675903,0.5174331068992615,0.9,0.79,0.001
111,0.41349518299102783,0.5169374346733093,0.9,0.79,0.001
112,0.4134911000728607,0.5167231559753418,0.9,0.79,0.001
113,0.41348591446876526,0.5168285965919495,0.9,0.79,0.001
114,0.4134770929813385,0.5169796943664551,0.9,0.79,0.001
115,0.41347312927246094,0.5169360637664795,0.9,0.79,0.001
116,0.41346877813339233,0.5166750550270081,0.9,0.79,0.001
117,0.41346144676208496,0.5163758397102356,0.9,0.8,0.001
118,0.41345736384391785,0.5162937045097351,0.9,0.8,0.001
119,0.41345375776290894,0.5164926648139954,0.9,0.79,0.001
120,0.4134478271007538,0.5167925953865051,0.9,0.79,0.001
121,0.4134439527988434,0.5169833898544312,0.9,0.79,0.001
122,0.4134407937526703,0.5169934034347534,0.9,0.79,0.001
123,0.4134359061717987,0.5169249176979065,0.9,0.79,0.001
124,0.4134320914745331,0.5169611573219299,0.9,0.79,0.001
125,0.4134293496608734,0.517208456993103,0.9,0.79,0.001
126,0.41342541575431824,0.5175771117210388,0.9,0.79,0.001
127,0.413421630859375,0.5178934335708618,0.9,0.79,0.001
128,0.41341903805732727,0.5180627703666687,0.9,0.79,0.001
129,0.4134158194065094,0.5181162357330322,0.9,0.79,0.001
130,0.4134123921394348,0.5181590914726257,0.9,0.79,0.001
131,0.4134097993373871,0.5182938575744629,0.9,0.79,0.001
132,0.4134070873260498,0.5185257792472839,0.9,0.79,0.001
133,0.4134041666984558,0.5187788605690002,0.9,0.79,0.001
134,0.41340169310569763,0.5189651250839233,0.9,0.79,0.001
135,0.4133993089199066,0.5190565586090088,0.9,0.79,0.001
136,0.4133968651294708,0.5190757513046265,0.9,0.79,0.001
137,0.41339433193206787,0.5190832018852234,0.9,0.79,0.001
138,0.41339224576950073,0.5191330313682556,0.9,0.79,0.001
139,0.4133901298046112,0.5192393660545349,0.9,0.79,0.001
140,0.41338783502578735,0.5193603038787842,0.9,0.79,0.001
141,0.41338562965393066,0.5194490551948547,0.9,0.79,0.001
142,0.41338375210762024,0.5194852948188782,0.9,0.79,0.001
143,0.4133817255496979,0.519468367099762,0.9,0.79,0.001
144,0.4133796989917755,0.5194373726844788,0.9,0.79,0.001
145,0.41337788105010986,0.5194231271743774,0.9,0.79,0.001
146,0.413376122713089,0.519448459148407,0.9,0.79,0.001
147,0.4133743345737457,0.5194990038871765,0.9,0.79,0.001
148,0.4133724868297577,0.5195460915565491,0.9,0.79,0.001
149,0.413370817899704,0.5195623636245728,0.9,0.79,0.001
150,0.4133692681789398,0.5195494294166565,0.9,0.79,0.001
151,0.41336768865585327,0.5195153951644897,0.9,0.79,0.001
152,0.4133659601211548,0.5194891095161438,0.9,0.79,0.001
153,0.4133644998073578,0.5194939970970154,0.9,0.79,0.001
154,0.4133630394935608,0.5195272564888,0.9,0.79,0.001
155,0.4133615493774414,0.5195728540420532,0.9,0.79,0.001
156,0.4133601784706116,0.5196179151535034,0.9,0.79,0.001
157,0.4133587181568146,0.5196419358253479,0.9,0.79,0.001
158,0.4133574366569519,0.5196516513824463,0.9,0.79,0.001
159,0.41335609555244446,0.5196611881256104,0.9,0.79,0.001
160,0.4133547246456146,0.5196799039840698,0.9,0.79,0.001
161,0.41335350275039673,0.5197239518165588,0.9,0.79,0.001
162,0.41335228085517883,0.5197855234146118,0.9,0.79,0.001
163,0.41335102915763855,0.5198482275009155,0.9,0.79,0.001
164,0.41334986686706543,0.5199092626571655,0.9,0.79,0.001
165,0.41334861516952515,0.5199565291404724,0.9,0.79,0.001
166,0.4133475124835968,0.519995927810669,0.9,0.79,0.001
167,0.41334637999534607,0.5200374722480774,0.9,0.79,0.001
168,0.41334521770477295,0.5200806260108948,0.9,0.79,0.001
169,0.41334423422813416,0.5201351642608643,0.9,0.79,0.001
170,0.4133431613445282,0.5201929807662964,0.9,0.79,0.001
171,0.41334211826324463,0.5202505588531494,0.9,0.79,0.001
172,0.4133411645889282,0.520301103591919,0.9,0.79,0.001
173,0.41334012150764465,0.5203467011451721,0.9,0.79,0.001
174,0.413339227437973,0.5203848481178284,0.9,0.79,0.001
175,0.4133382737636566,0.5204188823699951,0.9,0.79,0.001
176,0.4133373200893402,0.5204545855522156,0.9,0.79,0.001
177,0.4133363366127014,0.5204907059669495,0.9,0.79,0.001
178,0.41333550214767456,0.5205283164978027,0.9,0.79,0.001
179,0.4133346676826477,0.5205677151679993,0.9,0.79,0.001
180,0.4133336544036865,0.5206009745597839,0.9,0.79,0.001
181,0.41333281993865967,0.5206319093704224,0.9,0.79,0.001
182,0.4133320748806,0.520658552646637,0.9,0.79,0.001
183,0.41333118081092834,0.5206823348999023,0.9,0.79,0.001
184,0.41333043575286865,0.5207061171531677,0.9,0.79,0.001
185,0.4133296310901642,0.5207304954528809,0.9,0.79,0.001
186,0.4133288264274597,0.520753800868988,0.9,0.79,0.001
187,0.41332805156707764,0.5207841396331787,0.9,0.79,0.001
188,0.41332724690437317,0.5208158493041992,0.9,0.79,0.001
189,0.41332656145095825,0.5208420157432556,0.9,0.79,0.001
190,0.41332584619522095,0.5208649039268494,0.9,0.79,0.001
191,0.41332516074180603,0.5208884477615356,0.9,0.79,0.001
192,0.4133244454860687,0.5209134221076965,0.9,0.79,0.001
193,0.41332384943962097,0.5209384560585022,0.9,0.79,0.001
194,0.4133230447769165,0.5209665298461914,0.9,0.79,0.001
195,0.41332241892814636,0.5209937691688538,0.9,0.79,0.001
196,0.4133217930793762,0.5210202932357788,0.9,0.79,0.001
197,0.41332119703292847,0.5210476517677307,0.9,0.79,0.001
198,0.41332051157951355,0.5210751891136169,0.9,0.79,0.001
199,0.4133198857307434,0.521103024482727,0.9,0.79,0.001
200,0.41331928968429565,0.521130383014679,0.9,0.79,0.001
201,0.4133186638355255,0.521155595779419,0.9,0.79,0.001
202,0.41331809759140015,0.5211833715438843,0.9,0.79,0.001
203,0.41331756114959717,0.5212118029594421,0.9,0.79,0.001
204,0.4133169651031494,0.5212382674217224,0.9,0.79,0.001
205,0.4133163094520569,0.5212652683258057,0.9,0.79,0.001
206,0.4133157730102539,0.5212945342063904,0.9,0.79,0.001
207,0.41331520676612854,0.5213207602500916,0.9,0.79,0.001
208,0.41331472992897034,0.5213474631309509,0.9,0.79,0.001
209,0.41331416368484497,0.5213741064071655,0.9,0.79,0.001
210,0.4133135974407196,0.5214012861251831,0.9,0.79,0.001
211,0.4133131504058838,0.5214276909828186,0.9,0.79,0.001
212,0.4133126437664032,0.5214568972587585,0.9,0.79,0.001
213,0.4133121073246002,0.5214834213256836,0.9,0.79,0.001
214,0.41331160068511963,0.5215101838111877,0.9,0.79,0.001
215,0.4133111536502838,0.5215376019477844,0.9,0.79,0.001
216,0.4133106470108032,0.5215638279914856,0.9,0.79,0.001
217,0.413310170173645,0.5215915441513062,0.9,0.79,0.001
218,0.4133097529411316,0.521619439125061,0.9,0.79,0.001
219,0.4133092761039734,0.5216438174247742,0.9,0.79,0.001
220,0.4133088290691376,0.5216724276542664,0.9,0.79,0.001
221,0.41330841183662415,0.5216985940933228,0.9,0.79,0.001
222,0.41330796480178833,0.5217248201370239,0.9,0.79,0.001
223,0.4133075475692749,0.5217484831809998,0.9,0.79,0.001
224,0.41330716013908386,0.5217756032943726,0.9,0.79,0.001
225,0.41330674290657043,0.521802544593811,0.9,0.79,0.001
226,0.41330626606941223,0.5218273401260376,0.9,0.79,0.001
227,0.4133058786392212,0.5218522548675537,0.9,0.79,0.001
228,0.41330552101135254,0.5218767523765564,0.9,0.79,0.001
229,0.4133051037788391,0.5219018459320068,0.9,0.79,0.001
230,0.41330471634864807,0.5219271183013916,0.9,0.79,0.001
231,0.41330432891845703,0.5219500064849854,0.9,0.79,0.001
232,0.4133039116859436,0.5219727754592896,0.9,0.79,0.001
233,0.4133034944534302,0.5219958424568176,0.9,0.79,0.001
234,0.4133032262325287,0.5220191478729248,0.9,0.79,0.001
235,0.41330283880233765,0.5220412015914917,0.9,0.79,0.001
236,0.4133024513721466,0.5220634937286377,0.9,0.79,0.001
237,0.41330212354660034,0.522087812423706,0.9,0.79,0.001
238,0.4133017659187317,0.522111177444458,0.9,0.79,0.001
239,0.4133014380931854,0.5221316814422607,0.9,0.79,0.001
240,0.4133010804653168,0.5221558809280396,0.9,0.79,0.001
241,0.4133007526397705,0.5221773386001587,0.9,0.79,0.001
242,0.41330039501190186,0.522199809551239,0.9,0.79,0.001
243,0.413300096988678,0.522220253944397,0.9,0.79,0.001
244,0.4132998287677765,0.522240400314331,0.9,0.79,0.001
245,0.41329944133758545,0.5222627520561218,0.9,0.79,0.001
246,0.4132991433143616,0.5222833752632141,0.9,0.79,0.001
247,0.4132988452911377,0.5223054885864258,0.9,0.79,0.001
248,0.41329848766326904,0.5223293304443359,0.9,0.79,0.001
249,0.41329818964004517,0.522351861000061,0.9,0.79,0.001
250,0.4132978916168213,0.5223711133003235,0.9,0.79,0.001
251,0.413297563791275,0.5223919153213501,0.9,0.79,0.001
252,0.41329726576805115,0.5224142670631409,0.9,0.79,0.001
253,0.41329699754714966,0.5224335193634033,0.9,0.79,0.001
254,0.41329672932624817,0.5224558711051941,0.9,0.79,0.001
255,0.4132964313030243,0.5224739909172058,0.9,0.79,0.001
256,0.4132961928844452,0.5224927663803101,0.9,0.79,0.001
257,0.4132959246635437,0.522513210773468,0.9,0.79,0.001
258,0.413295716047287,0.5225347876548767,0.9,0.79,0.001
259,0.4132953882217407,0.5225555896759033,0.9,0.79,0.001
260,0.41329509019851685,0.522573709487915,0.9,0.79,0.001
261,0.41329482197761536,0.5225928425788879,0.9,0.79,0.001
262,0.4132945239543915,0.5226119756698608,0.9,0.79,0.001
263,0.41329434514045715,0.5226298570632935,0.9,0.79,0.001
264,0.41329410672187805,0.5226501226425171,0.9,0.79,0.001
265,0.41329383850097656,0.5226709246635437,0.9,0.79,0.001
266,0.4132935702800751,0.5226878523826599,0.9,0.79,0.001
267,0.4132933020591736,0.5227087736129761,0.9,0.79,0.001
268,0.41329315304756165,0.5227243304252625,0.9,0.79,0.001
269,0.41329285502433777,0.5227442979812622,0.9,0.79,0.001
270,0.41329261660575867,0.5227606296539307,0.9,0.79,0.001
271,0.41329237818717957,0.5227798223495483,0.9,0.79,0.001
272,0.41329216957092285,0.5227970480918884,0.9,0.79,0.001
273,0.41329190135002136,0.5228133201599121,0.9,0.79,0.001
274,0.4132918119430542,0.5228319764137268,0.9,0.79,0.001
275,0.4132915437221527,0.5228498578071594,0.9,0.79,0.001
276,0.4132912755012512,0.5228703022003174,0.9,0.79,0.001
277,0.4132910668849945,0.5228854417800903,0.9,0.79,0.001
278,0.4132908582687378,0.5229027271270752,0.9,0.79,0.001
279,0.4132906198501587,0.5229179263114929,0.9,0.79,0.001
280,0.413290411233902,0.5229344367980957,0.9,0.79,0.001
281,0.4132901728153229,0.5229477882385254,0.9,0.79,0.001
282,0.41328999400138855,0.5229650735855103,0.9,0.79,0.001
283,0.4132898449897766,0.5229822397232056,0.9,0.79,0.001
284,0.4132896065711975,0.5229962468147278,0.9,0.79,0.001
285,0.41328948736190796,0.523015022277832,0.9,0.79,0.001
286,0.4132891893386841,0.5230290293693542,0.9,0.79,0.001
287,0.41328898072242737,0.5230432152748108,0.9,0.79,0.001
288,0.41328883171081543,0.5230607986450195,0.9,0.79,0.001
289,0.4132886230945587,0.5230766534805298,0.9,0.79,0.001
290,0.4132884740829468,0.5230924487113953,0.9,0.79,0.001
291,0.41328826546669006,0.5231075882911682,0.9,0.79,0.001
292,0.41328802704811096,0.5231238007545471,0.9,0.79,0.001
293,0.413287878036499,0.5231387615203857,0.9,0.79,0.001
294,0.4132877290248871,0.5231533646583557,0.9,0.79,0.001
295,0.41328755021095276,0.523166835308075,0.9,0.79,0.001
296,0.41328734159469604,0.5231784582138062,0.9,0.79,0.001
297,0.4132871925830841,0.5231898427009583,0.9,0.79,0.001
298,0.4132869839668274,0.5232062339782715,0.9,0.79,0.001
299,0.41328686475753784,0.5232201218605042,0.9,0.79,0.001
300,0.41328665614128113,0.5232331156730652,0.9,0.79,0.0007937005259840996
301,0.41328656673431396,0.5232430100440979,0.9,0.79,0.0007937005259840996
302,0.41328635811805725,0.5232545733451843,0.9,0.79,0.0007937005259840996
303,0.4132862389087677,0.5232659578323364,0.9,0.79,0.0007937005259840996
304,0.41328611969947815,0.5232762694358826,0.9,0.79,0.0007937005259840996
305,0.4132859706878662,0.5232853889465332,0.9,0.79,0.0007937005259840996
306,0.4132858216762543,0.5232945084571838,0.9,0.79,0.0007937005259840996
307,0.4132857620716095,0.5233044624328613,0.9,0.79,0.0007937005259840996
308,0.41328561305999756,0.5233153104782104,0.9,0.79,0.0007937005259840996
309,0.4132855534553528,0.5233224630355835,0.9,0.79,0.0007937005259840996
310,0.41328540444374084,0.5233314037322998,0.9,0.79,0.0007937005259840996
311,0.4132852256298065,0.523341715335846,0.9,0.79,0.0007937005259840996
312,0.41328513622283936,0.5233506560325623,0.9,0.79,0.0007937005259840996
313,0.4132849872112274,0.523361325263977,0.9,0.79,0.0007937005259840996
314,0.41328489780426025,0.523368239402771,0.9,0.79,0.0007937005259840996
315,0.4132847487926483,0.5233787894248962,0.9,0.79,0.0007937005259840996
316,0.41328468918800354,0.5233911275863647,0.9,0.79,0.0007937005259840996
317,0.4132845401763916,0.5234004855155945,0.9,0.79,0.0007937005259840996
318,0.41328439116477966,0.5234096646308899,0.9,0.79,0.0007937005259840996
319,0.41328421235084534,0.5234190225601196,0.9,0.79,0.0007937005259840996
320,0.41328421235084534,0.5234255790710449,0.9,0.79,0.0007937005259840996
321,0.413284033536911,0.5234330892562866,0.9,0.79,0.0007937005259840996
322,0.41328394412994385,0.5234411954879761,0.9,0.79,0.0007937005259840996
323,0.4132837951183319,0.5234463214874268,0.9,0.79,0.0007937005259840996
324,0.41328373551368713,0.5234529376029968,0.9,0.79,0.0007937005259840996
325,0.41328370571136475,0.5234638452529907,0.9,0.79,0.0007937005259840996
326,0.4132835865020752,0.5234732627868652,0.9,0.79,0.0007937005259840996
327,0.4132833480834961,0.5234818458557129,0.9,0.79,0.0007937005259840996
328,0.4132833182811737,0.5234876275062561,0.9,0.79,0.0007937005259840996
329,0.41328325867652893,0.5234986543655396,0.9,0.79,0.0007937005259840996
330,0.413283109664917,0.523506760597229,0.9,0.79,0.0007937005259840996
331,0.41328299045562744,0.5235140323638916,0.9,0.79,0.0007937005259840996
332,0.4132829010486603,0.5235216617584229,0.9,0.79,0.0007937005259840996
333,0.41328275203704834,0.5235299468040466,0.9,0.79,0.0007937005259840996
334,0.41328269243240356,0.5235334038734436,0.9,0.79,0.0007937005259840996
335,0.4132825434207916,0.5235397219657898,0.9,0.79,0.0007937005259840996
336,0.41328248381614685,0.5235497951507568,0.9,0.79,0.0007937005259840996
337,0.4132824242115021,0.5235518217086792,0.9,0.79,0.0007937005259840996
338,0.41328227519989014,0.5235601663589478,0.9,0.79,0.0007937005259840996
339,0.4132821261882782,0.5235692858695984,0.9,0.79,0.0007937005259840996
340,0.4132821559906006,0.5235741138458252,0.9,0.79,0.0007937005259840996
341,0.41328200697898865,0.5235799551010132,0.9,0.79,0.0007937005259840996
342,0.4132818579673767,0.5235885381698608,0.9,0.79,0.0007937005259840996
343,0.41328179836273193,0.5235958099365234,0.9,0.79,0.0007937005259840996
344,0.41328173875808716,0.5236015319824219,0.9,0.79,0.0007937005259840996
345,0.4132816195487976,0.5236078500747681,0.9,0.79,0.0007937005259840996
346,0.41328153014183044,0.5236150026321411,0.9,0.79,0.0007937005259840996
347,0.4132814109325409,0.5236198306083679,0.9,0.79,0.0007937005259840996
348,0.41328129172325134,0.5236279964447021,0.9,0.79,0.0007937005259840996
349,0.41328126192092896,0.5236349105834961,0.9,0.79,0.0007937005259840996
350,0.4132811725139618,0.5236406326293945,0.9,0.79,0.0007937005259840996
351,0.41328102350234985,0.523645281791687,0.9,0.79,0.0007937005259840996
352,0.4132809340953827,0.5236526131629944,0.9,0.79,0.0007937005259840996
353,0.4132808744907379,0.5236570835113525,0.9,0.79,0.0007937005259840996
354,0.4132808446884155,0.5236650109291077,0.9,0.79,0.0007937005259840996
355,0.413280725479126,0.5236741304397583,0.9,0.79,0.0007937005259840996
356,0.4132806360721588,0.5236781239509583,0.9,0.79,0.0007937005259840996
357,0.41328051686286926,0.5236825346946716,0.9,0.79,0.0007937005259840996
358,0.4132803976535797,0.5236886739730835,0.9,0.79,0.0007937005259840996
359,0.41328033804893494,0.5236941576004028,0.9,0.79,0.0007937005259840996
360,0.4132802486419678,0.5236979126930237,0.9,0.79,0.0007937005259840996
361,0.4132801294326782,0.5237008929252625,0.9,0.79,0.0007937005259840996
362,0.41328009963035583,0.5237060785293579,0.9,0.79,0.0007937005259840996
363,0.4132799804210663,0.5237114429473877,0.9,0.79,0.0007937005259840996
364,0.4132799506187439,0.5237159132957458,0.9,0.79,0.0007937005259840996
365,0.41327980160713196,0.5237208008766174,0.9,0.79,0.0007937005259840996
366,0.4132797122001648,0.523726224899292,0.9,0.79,0.0007937005259840996
367,0.41327965259552,0.5237300395965576,0.9,0.79,0.0007937005259840996
368,0.41327956318855286,0.5237338542938232,0.9,0.79,0.0007937005259840996
369,0.4132795035839081,0.5237375497817993,0.9,0.79,0.0007937005259840996
370,0.4132794439792633,0.5237407684326172,0.9,0.79,0.0007937005259840996
371,0.41327935457229614,0.5237424373626709,0.9,0.79,0.0007937005259840996
372,0.413279265165329,0.5237475037574768,0.9,0.79,0.0007937005259840996
373,0.41327914595603943,0.5237501263618469,0.9,0.79,0.0007937005259840996
374,0.4132791757583618,0.5237582921981812,0.9,0.79,0.0007937005259840996
375,0.4132790267467499,0.5237588286399841,0.9,0.79,0.0007937005259840996
376,0.4132789969444275,0.5237643718719482,0.9,0.79,0.0007937005259840996
377,0.4132789373397827,0.523765504360199,0.9,0.79,0.0007937005259840996
378,0.41327881813049316,0.5237711071968079,0.9,0.79,0.0007937005259840996
379,0.413278728723526,0.5237733721733093,0.9,0.79,0.0007937005259840996
380,0.4132786691188812,0.5237785577774048,0.9,0.79,0.0007937005259840996
381,0.41327857971191406,0.5237823128700256,0.9,0.79,0.0007937005259840996
382,0.4132784605026245,0.5237835645675659,0.9,0.79,0.0007937005259840996
383,0.41327840089797974,0.5237871408462524,0.9,0.79,0.0007937005259840996
384,0.4132783114910126,0.5237865447998047,0.9,0.79,0.0007937005259840996
385,0.4132782220840454,0.5237892270088196,0.9,0.79,0.0007937005259840996
386,0.413278192281723,0.5237930417060852,0.9,0.79,0.0007937005259840996
387,0.413278192281723,0.5237939357757568,0.9,0.79,0.0007937005259840996
388,0.41327807307243347,0.523800253868103,0.9,0.79,0.0007937005259840996
389,0.4132780432701111,0.5238001346588135,0.9,0.79,0.0007937005259840996
390,0.41327789425849915,0.523806095123291,0.9,0.79,0.0007937005259840996
391,0.41327786445617676,0.523809552192688,0.9,0.79,0.0007937005259840996
392,0.4132777750492096,0.5238118171691895,0.9,0.79,0.0007937005259840996
393,0.4132777452468872,0.5238140225410461,0.9,0.79,0.0007937005259840996
394,0.41327765583992004,0.5238189101219177,0.9,0.79,0.0007937005259840996
395,0.4132775366306305,0.5238190293312073,0.9,0.79,0.0007937005259840996
396,0.4132775366306305,0.5238208770751953,0.9,0.79,0.0007937005259840996
397,0.4132774770259857,0.5238221287727356,0.9,0.79,0.0007937005259840996
398,0.413277268409729,0.5238228440284729,0.9,0.79,0.0007937005259840996
399,0.4132772386074066,0.5238239765167236,0.9,0.79,0.0007937005259840996
400,0.4132772386074066,0.5238250494003296,0.9,0.79,0.0007937005259840996
401,0.4132772386074066,0.5238298177719116,0.9,0.79,0.0007937005259840996
402,0.4132770895957947,0.5238288640975952,0.9,0.79,0.0007937005259840996
403,0.41327711939811707,0.5238327980041504,0.9,0.79,0.0007937005259840996
404,0.41327694058418274,0.5238335132598877,0.9,0.79,0.0007937005259840996
405,0.41327694058418274,0.5238352417945862,0.9,0.79,0.0007937005259840996
406,0.4132768511772156,0.5238372683525085,0.9,0.79,0.0007937005259840996
407,0.4132768511772156,0.5238335728645325,0.9,0.79,0.0007937005259840996
408,0.41327667236328125,0.5238385200500488,0.9,0.79,0.0007937005259840996
409,0.41327670216560364,0.5238392949104309,0.9,0.79,0.0007937005259840996
410,0.4132765829563141,0.5238405466079712,0.9,0.79,0.0007937005259840996
411,0.4132765531539917,0.5238386988639832,0.9,0.79,0.0007937005259840996
412,0.41327643394470215,0.5238409638404846,0.9,0.79,0.0007937005259840996
413,0.4132764935493469,0.5238428711891174,0.9,0.79,0.0007937005259840996
414,0.4132762849330902,0.5238444209098816,0.9,0.79,0.0007937005259840996
415,0.4132762849330902,0.523842990398407,0.9,0.79,0.0007937005259840996
416,0.4132762551307678,0.5238435864448547,0.9,0.79,0.0007937005259840996
417,0.4132762551307678,0.5238441228866577,0.9,0.79,0.0007937005259840996
418,0.4132761061191559,0.5238431692123413,0.9,0.79,0.0007937005259840996
419,0.4132760763168335,0.5238428115844727,0.9,0.79,0.0007937005259840996
420,0.41327598690986633,0.5238425731658936,0.9,0.79,0.0007937005259840996
421,0.41327589750289917,0.5238434076309204,0.9,0.79,0.0007937005259840996
422,0.4132758677005768,0.5238430500030518,0.9,0.79,0.0007937005259840996
423,0.4132758378982544,0.5238457322120667,0.9,0.79,0.0007937005259840996
424,0.413275808095932,0.5238456130027771,0.9,0.79,0.0007937005259840996
425,0.41327574849128723,0.5238453149795532,0.9,0.79,0.0007937005259840996
426,0.41327568888664246,0.5238441228866577,0.9,0.79,0.0007937005259840996
427,0.41327568888664246,0.5238445401191711,0.9,0.79,0.0007937005259840996
428,0.4132755696773529,0.5238466858863831,0.9,0.79,0.0007937005259840996
429,0.41327548027038574,0.5238460898399353,0.9,0.79,0.0007937005259840996
430,0.41327542066574097,0.5238466858863831,0.9,0.79,0.0007937005259840996
431,0.4132753610610962,0.5238457322120667,0.9,0.79,0.0007937005259840996
432,0.4132753014564514,0.5238451957702637,0.9,0.79,0.0007937005259840996
433,0.41327521204948425,0.5238438248634338,0.9,0.79,0.0007937005259840996
434,0.41327518224716187,0.5238422155380249,0.9,0.79,0.0007937005259840996
435,0.4132751226425171,0.5238426327705383,0.9,0.79,0.0007937005259840996
436,0.4132751226425171,0.5238395929336548,0.9,0.79,0.0007937005259840996
437,0.4132750630378723,0.5238388180732727,0.9,0.79,0.0007937005259840996
438,0.41327500343322754,0.523838460445404,0.9,0.79,0.0007937005259840996
439,0.4132749140262604,0.5238401889801025,0.9,0.79,0.0007937005259840996
440,0.41327494382858276,0.5238364934921265,0.9,0.79,0.0007937005259840996
441,0.4132747948169708,0.5238353610038757,0.9,0.79,0.0007937005259840996
442,0.41327476501464844,0.523835301399231,0.9,0.79,0.0007937005259840996
443,0.41327473521232605,0.5238357186317444,0.9,0.79,0.0007937005259840996
444,0.4132746756076813,0.523836612701416,0.9,0.79,0.0007937005259840996
445,0.4132746160030365,0.523834764957428,0.9,0.79,0.0007937005259840996
446,0.4132745862007141,0.5238348841667175,0.9,0.79,0.0007937005259840996
447,0.41327449679374695,0.5238321423530579,0.9,0.79,0.0007937005259840996
448,0.41327449679374695,0.5238292217254639,0.9,0.79,0.0007937005259840996
449,0.4132744073867798,0.5238295793533325,0.9,0.79,0.0007937005259840996
450,0.4132743775844574,0.5238229632377625,0.9,0.79,0.0007937005259840996
451,0.41327425837516785,0.5238252282142639,0.9,0.79,0.0007937005259840996
452,0.4132743179798126,0.5238184332847595,0.9,0.79,0.0007937005259840996
453,0.41327422857284546,0.5238155722618103,0.9,0.79,0.0007937005259840996
454,0.41327419877052307,0.5238133668899536,0.9,0.79,0.0007937005259840996
455,0.4132741689682007,0.5238107442855835,0.9,0.79,0.0007937005259840996
456,0.4132740795612335,0.5238144993782043,0.9,0.79,0.0007937005259840996
457,0.41327404975891113,0.5238097310066223,0.9,0.79,0.0007937005259840996
458,0.41327399015426636,0.5238099098205566,0.9,0.79,0.0007937005259840996
459,0.41327396035194397,0.5238077640533447,0.9,0.79,0.0007937005259840996
460,0.4132739305496216,0.523805558681488,0.9,0.79,0.0007937005259840996
461,0.4132739007472992,0.5238012075424194,0.9,0.79,0.0007937005259840996
462,0.41327381134033203,0.5237976908683777,0.9,0.79,0.0007937005259840996
463,0.41327381134033203,0.5237960815429688,0.9,0.79,0.0007937005259840996
464,0.41327372193336487,0.5237898826599121,0.9,0.79,0.0007937005259840996
465,0.4132736325263977,0.5237894058227539,0.9,0.79,0.0007937005259840996
466,0.41327357292175293,0.523787260055542,0.9,0.79,0.0007937005259840996
467,0.4132736325263977,0.5237825512886047,0.9,0.79,0.0007937005259840996
468,0.41327357292175293,0.5237802267074585,0.9,0.79,0.0007937005259840996
469,0.4132734537124634,0.5237796902656555,0.9,0.79,0.0007937005259840996
470,0.4132734537124634,0.5237779021263123,0.9,0.79,0.0007937005259840996
471,0.4132733941078186,0.5237748026847839,0.9,0.79,0.0007937005259840996
472,0.413273423910141,0.5237745642662048,0.9,0.79,0.0007937005259840996
473,0.41327330470085144,0.5237703919410706,0.9,0.79,0.0007937005259840996
474,0.4132733643054962,0.52376788854599,0.9,0.79,0.0007937005259840996
475,0.4132732152938843,0.5237634181976318,0.9,0.79,0.0007937005259840996
476,0.4132731556892395,0.5237579345703125,0.9,0.79,0.0007937005259840996
477,0.4132731258869171,0.5237558484077454,0.9,0.79,0.0007937005259840996
478,0.4132731556892395,0.5237517356872559,0.9,0.79,0.0007937005259840996
479,0.4132730960845947,0.5237473845481873,0.9,0.79,0.0007937005259840996
480,0.41327303647994995,0.523745059967041,0.9,0.79,0.0007937005259840996
481,0.41327300667762756,0.5237394571304321,0.9,0.79,0.0007937005259840996
482,0.4132729470729828,0.5237376689910889,0.9,0.79,0.0007937005259840996
483,0.413272887468338,0.5237295627593994,0.9,0.79,0.0006299605249474364
484,0.413272887468338,0.5237277746200562,0.9,0.79,0.0006299605249474364
485,0.4132728576660156,0.5237247943878174,0.9,0.79,0.0006299605249474364
486,0.41327276825904846,0.5237254500389099,0.9,0.79,0.0006299605249474364
487,0.4132727384567261,0.5237202048301697,0.9,0.79,0.0006299605249474364
488,0.4132727384567261,0.5237194895744324,0.9,0.79,0.0006299605249474364
489,0.4132726788520813,0.5237179398536682,0.9,0.79,0.0006299605249474364
490,0.4132726192474365,0.5237140655517578,0.9,0.79,0.0006299605249474364
491,0.4132726788520813,0.5237118005752563,0.9,0.79,0.0006299605249474364
492,0.4132726788520813,0.5237085819244385,0.9,0.79,0.0006299605249474364
493,0.413272500038147,0.523705244064331,0.9,0.79,0.0006299605249474364
494,0.413272500038147,0.5237025022506714,0.9,0.79,0.0006299605249474364
495,0.4132724702358246,0.5237000584602356,0.9,0.79,0.0006299605249474364
496,0.41327255964279175,0.5236936211585999,0.9,0.79,0.0006299605249474364
497,0.4132724404335022,0.5236914157867432,0.9,0.79,0.0006299605249474364
498,0.4132724404335022,0.5236884951591492,0.9,0.79,0.0006299605249474364
499,0.41327232122421265,0.5236859321594238,0.9,0.79,0.0006299605249474364
500,0.41327232122421265,0.5236836075782776,0.9,0.79,0.0006299605249474364
501,0.41327232122421265,0.5236783623695374,0.9,0.79,0.0006299605249474364
502,0.41327232122421265,0.5236747860908508,0.9,0.79,0.0006299605249474364
503,0.41327226161956787,0.5236715078353882,0.9,0.79,0.0006299605249474364
504,0.4132722020149231,0.5236684083938599,0.9,0.79,0.0006299605249474364
505,0.4132721424102783,0.5236654877662659,0.9,0.79,0.0006299605249474364
506,0.4132721722126007,0.5236652493476868,0.9,0.79,0.0006299605249474364
507,0.4132722020149231,0.5236608386039734,0.9,0.79,0.0006299605249474364
508,0.4132721424102783,0.5236579179763794,0.9,0.79,0.0006299605249474364
509,0.41327205300331116,0.5236547589302063,0.9,0.79,0.0006299605249474364
510,0.41327205300331116,0.5236518979072571,0.9,0.79,0.0006299605249474364
511,0.41327208280563354,0.5236485004425049,0.9,0.79,0.0006299605249474364
512,0.4132719933986664,0.5236454606056213,0.9,0.79,0.0006299605249474364
513,0.41327202320098877,0.5236376523971558,0.9,0.79,0.0006299605249474364
514,0.4132719337940216,0.5236366987228394,0.9,0.79,0.0006299605249474364
515,0.4132719337940216,0.5236326456069946,0.9,0.79,0.0006299605249474364
516,0.41327187418937683,0.5236285924911499,0.9,0.79,0.0006299605249474364
517,0.41327187418937683,0.5236261487007141,0.9,0.79,0.0006299605249474364
518,0.41327187418937683,0.5236210227012634,0.9,0.79,0.0006299605249474364
519,0.41327181458473206,0.5236169099807739,0.9,0.79,0.0006299605249474364
520,0.4132717251777649,0.523613691329956,0.9,0.79,0.0006299605249474364
521,0.4132717549800873,0.5236101150512695,0.9,0.79,0.0006299605249474364
522,0.4132717251777649,0.5236024260520935,0.9,0.79,0.0006299605249474364
523,0.4132716655731201,0.5236014723777771,0.9,0.79,0.0006299605249474364
524,0.4132717251777649,0.5235954523086548,0.9,0.79,0.0006299605249474364
525,0.41327163577079773,0.5235896110534668,0.9,0.79,0.0006299605249474364
526,0.4132716655731201,0.5235851407051086,0.9,0.79,0.0006299605249474364
527,0.41327154636383057,0.5235813856124878,0.9,0.79,0.0006299605249474364
528,0.41327154636383057,0.52357417345047,0.9,0.79,0.0006299605249474364
529,0.41327154636383057,0.523574948310852,0.9,0.79,0.0006299605249474364
530,0.4132714867591858,0.5235721468925476,0.9,0.79,0.0006299605249474364
531,0.4132714867591858,0.5235646963119507,0.9,0.79,0.0006299605249474364
532,0.4132714867591858,0.5235635042190552,0.9,0.79,0.0006299605249474364
533,0.4132714569568634,0.523559033870697,0.9,0.79,0.0006299605249474364
534,0.41327139735221863,0.523554801940918,0.9,0.79,0.0006299605249474364
535,0.41327133774757385,0.5235520005226135,0.9,0.79,0.0006299605249474364
536,0.41327136754989624,0.5235453844070435,0.9,0.79,0.0006299605249474364
537,0.4132712483406067,0.5235427618026733,0.9,0.79,0.0006299605249474364
538,0.41327133774757385,0.5235349535942078,0.9,0.79,0.0006299605249474364
539,0.4132712483406067,0.5235328674316406,0.9,0.79,0.0006299605249474364
540,0.4132712185382843,0.5235260128974915,0.9,0.79,0.0006299605249474364
541,0.4132712483406067,0.5235225558280945,0.9,0.79,0.0006299605249474364
542,0.4132712185382843,0.5235170722007751,0.9,0.79,0.0006299605249474364
543,0.4132712185382843,0.5235118269920349,0.9,0.79,0.0006299605249474364
544,0.41327109932899475,0.5235068798065186,0.9,0.79,0.0006299605249474364
545,0.41327109932899475,0.5235018730163574,0.9,0.79,0.0006299605249474364
546,0.41327106952667236,0.5234975218772888,0.9,0.79,0.0006299605249474364
547,0.41327103972435,0.5234926342964172,0.9,0.79,0.0006299605249474364
548,0.41327106952667236,0.5234897136688232,0.9,0.79,0.0006299605249474364
549,0.4132709801197052,0.5234848856925964,0.9,0.79,0.0006299605249474364
550,0.4132709801197052,0.5234784483909607,0.9,0.79,0.0006299605249474364
551,0.4132709503173828,0.523475170135498,0.9,0.79,0.0006299605249474364
552,0.4132709801197052,0.5234710574150085,0.9,0.79,0.0006299605249474364
553,0.4132709205150604,0.5234686136245728,0.9,0.79,0.0006299605249474364
554,0.41327086091041565,0.5234639644622803,0.9,0.79,0.0006299605249474364
555,0.41327086091041565,0.5234556198120117,0.9,0.79,0.0006299605249474364
556,0.41327083110809326,0.5234514474868774,0.9,0.79,0.0006299605249474364
557,0.4132708013057709,0.5234482884407043,0.9,0.79,0.0006299605249474364
558,0.4132707118988037,0.5234434604644775,0.9,0.79,0.0006299605249474364
559,0.4132708013057709,0.5234392285346985,0.9,0.79,0.0006299605249474364
560,0.4132707715034485,0.5234335660934448,0.9,0.79,0.0006299605249474364
561,0.4132707715034485,0.5234307050704956,0.9,0.79,0.0006299605249474364
562,0.4132707118988037,0.5234227180480957,0.9,0.79,0.0006299605249474364
563,0.4132706820964813,0.523418664932251,0.9,0.79,0.0006299605249474364
564,0.4132706820964813,0.523415207862854,0.9,0.79,0.0006299605249474364
565,0.41327065229415894,0.5234079957008362,0.9,0.79,0.0006299605249474364
566,0.41327059268951416,0.5234010815620422,0.9,0.79,0.0006299605249474364
567,0.41327059268951416,0.5233985185623169,0.9,0.79,0.0006299605249474364
568,0.4132705330848694,0.5233917832374573,0.9,0.79,0.0006299605249474364
569,0.4132705330848694,0.5233852863311768,0.9,0.79,0.0006299605249474364
570,0.413270503282547,0.5233762264251709,0.9,0.79,0.0006299605249474364
571,0.4132704436779022,0.5233750343322754,0.9,0.79,0.0006299605249474364
572,0.4132704436779022,0.5233686566352844,0.9,0.79,0.0006299605249474364
573,0.413270503282547,0.5233663320541382,0.9,0.79,0.0006299605249474364
574,0.41327038407325745,0.5233612656593323,0.9,0.79,0.0006299605249474364
575,0.41327041387557983,0.5233558416366577,0.9,0.79,0.0006299605249474364
576,0.41327038407325745,0.5233546495437622,0.9,0.79,0.0006299605249474364
577,0.41327038407325745,0.5233504772186279,0.9,0.79,0.0006299605249474364
578,0.41327038407325745,0.523343026638031,0.9,0.79,0.0006299605249474364
579,0.4132702648639679,0.5233396291732788,0.9,0.79,0.0006299605249474364
580,0.4132702946662903,0.5233345627784729,0.9,0.79,0.0006299605249474364
581,0.4132702648639679,0.5233268141746521,0.9,0.79,0.0006299605249474364
582,0.4132702350616455,0.5233197212219238,0.9,0.79,0.0006299605249474364
583,0.4132702350616455,0.5233153700828552,0.9,0.79,0.0006299605249474364
584,0.41327017545700073,0.5233117938041687,0.9,0.79,0.0004999999999999997
585,0.41327011585235596,0.5233042240142822,0.9,0.79,0.0004999999999999997
586,0.41327017545700073,0.5233027935028076,0.9,0.79,0.0004999999999999997
587,0.41327008605003357,0.5232987403869629,0.9,0.79,0.0004999999999999997
588,0.41327008605003357,0.5232908129692078,0.9,0.79,0.0004999999999999997
589,0.41327014565467834,0.5232846140861511,0.9,0.79,0.0004999999999999997
590,0.41327008605003357,0.5232791304588318,0.9,0.79,0.0004999999999999997
591,0.4132700264453888,0.5232738256454468,0.9,0.79,0.0004999999999999997
592,0.41327011585235596,0.5232736468315125,0.9,0.79,0.0004999999999999997
593,0.4132700264453888,0.523267388343811,0.9,0.79,0.0004999999999999997
594,0.4132700264453888,0.5232629179954529,0.9,0.79,0.0004999999999999997
595,0.413269966840744,0.523260235786438,0.9,0.79,0.0004999999999999997
596,0.413269966840744,0.5232545733451843,0.9,0.79,0.0004999999999999997
597,0.413269966840744,0.5232494473457336,0.9,0.79,0.0004999999999999997
598,0.41326990723609924,0.5232468843460083,0.9,0.79,0.0004999999999999997
599,0.41326990723609924,0.5232429504394531,0.9,0.79,0.0004999999999999997
600,0.413269966840744,0.5232385396957397,0.9,0.79,0.0004999999999999997
601,0.41326987743377686,0.5232332944869995,0.9,0.79,0.0004999999999999997
602,0.41326990723609924,0.5232318043708801,0.9,0.79,0.0004999999999999997
603,0.41326984763145447,0.5232231020927429,0.9,0.79,0.0004999999999999997
604,0.41326990723609924,0.5232186317443848,0.9,0.79,0.0004999999999999997
605,0.4132698178291321,0.5232136249542236,0.9,0.79,0.0004999999999999997
606,0.41326984763145447,0.5232076048851013,0.9,0.79,0.0004999999999999997
607,0.41326984763145447,0.5232035517692566,0.9,0.79,0.0004999999999999997
608,0.4132698178291321,0.5231955051422119,0.9,0.79,0.0004999999999999997
609,0.4132697582244873,0.5231929421424866,0.9,0.79,0.0004999999999999997
610,0.4132697284221649,0.5231857895851135,0.9,0.79,0.0004999999999999997
611,0.4132697284221649,0.5231829881668091,0.9,0.79,0.0004999999999999997
612,0.41326969861984253,0.5231778621673584,0.9,0.79,0.0004999999999999997
613,0.41326963901519775,0.5231717824935913,0.9,0.79,0.0004999999999999997
614,0.41326963901519775,0.5231694579124451,0.9,0.79,0.0004999999999999997
615,0.41326963901519775,0.5231655836105347,0.9,0.79,0.0004999999999999997
616,0.41326963901519775,0.5231626033782959,0.9,0.79,0.0004999999999999997
617,0.413269579410553,0.5231567621231079,0.9,0.79,0.0004999999999999997
618,0.41326963901519775,0.5231519341468811,0.9,0.79,0.0004999999999999997
619,0.41326963901519775,0.5231503844261169,0.9,0.79,0.0004999999999999997
620,0.413269579410553,0.5231457948684692,0.9,0.79,0.0004999999999999997
621,0.413269579410553,0.5231393575668335,0.9,0.79,0.0004999999999999997
622,0.4132695496082306,0.523135781288147,0.9,0.79,0.0004999999999999997
623,0.413269579410553,0.5231331586837769,0.9,0.79,0.0004999999999999997
624,0.4132695496082306,0.5231242179870605,0.9,0.79,0.0004999999999999997
625,0.4132695496082306,0.5231192708015442,0.9,0.79,0.0004999999999999997
626,0.41326943039894104,0.5231156945228577,0.9,0.79,0.0004999999999999997
627,0.4132694602012634,0.5231097340583801,0.9,0.79,0.0004999999999999997
628,0.41326943039894104,0.5231003761291504,0.9,0.79,0.0004999999999999997
629,0.41326940059661865,0.5230980515480042,0.9,0.79,0.0004999999999999997
630,0.41326943039894104,0.5230922698974609,0.9,0.79,0.0004999999999999997
631,0.41326943039894104,0.523086428642273,0.9,0.79,0.0004999999999999997
632,0.41326940059661865,0.5230815410614014,0.9,0.79,0.0004999999999999997
633,0.41326940059661865,0.5230771899223328,0.9,0.79,0.0004999999999999997
634,0.41326940059661865,0.5230735540390015,0.9,0.79,0.0004999999999999997
635,0.41326940059661865,0.5230655074119568,0.9,0.79,0.0004999999999999997
636,0.4132693409919739,0.5230637192726135,0.9,0.79,0.0004999999999999997
637,0.4132693409919739,0.5230592489242554,0.9,0.79,0.0004999999999999997
638,0.4132693111896515,0.5230554938316345,0.9,0.79,0.0004999999999999997
639,0.4132692217826843,0.5230507254600525,0.9,0.79,0.0004999999999999997
640,0.4132692813873291,0.5230441689491272,0.9,0.79,0.0004999999999999997
641,0.4132692813873291,0.5230411887168884,0.9,0.79,0.0004999999999999997
642,0.4132692813873291,0.5230380296707153,0.9,0.79,0.0004999999999999997
643,0.41326919198036194,0.5230296850204468,0.9,0.79,0.0004999999999999997
644,0.41326919198036194,0.5230251550674438,0.9,0.79,0.0004999999999999997
645,0.4132692217826843,0.5230170488357544,0.9,0.79,0.0004999999999999997
646,0.41326919198036194,0.5230116248130798,0.9,0.79,0.0004999999999999997
647,0.41326913237571716,0.5230070352554321,0.9,0.79,0.0004999999999999997
648,0.41326913237571716,0.5230005383491516,0.9,0.79,0.0004999999999999997
649,0.41326913237571716,0.5229960083961487,0.9,0.79,0.0004999999999999997
650,0.41326913237571716,0.5229912996292114,0.9,0.79,0.0004999999999999997
651,0.41326916217803955,0.522986650466919,0.9,0.79,0.0004999999999999997
652,0.41326913237571716,0.5229833126068115,0.9,0.79,0.0004999999999999997
653,0.41326904296875,0.5229780077934265,0.9,0.79,0.0004999999999999997
654,0.41326904296875,0.5229739546775818,0.9,0.79,0.0004999999999999997
655,0.4132690727710724,0.5229698419570923,0.9,0.79,0.0004999999999999997
656,0.41326904296875,0.5229637026786804,0.9,0.79,0.0004999999999999997
657,0.4132690131664276,0.5229608416557312,0.9,0.79,0.0004999999999999997
658,0.41326904296875,0.5229560732841492,0.9,0.79,0.0004999999999999997
659,0.4132690727710724,0.52294921875,0.9,0.79,0.0004999999999999997
660,0.41326895356178284,0.5229457020759583,0.9,0.79,0.0004999999999999997
661,0.41326895356178284,0.5229400396347046,0.9,0.79,0.0004999999999999997
662,0.4132690131664276,0.522935152053833,0.9,0.79,0.0004999999999999997
663,0.41326895356178284,0.5229306221008301,0.9,0.79,0.0004999999999999997
664,0.4132690131664276,0.522922158241272,0.9,0.79,0.0004999999999999997
665,0.41326892375946045,0.5229173898696899,0.9,0.79,0.0004999999999999997
666,0.41326895356178284,0.5229098796844482,0.9,0.79,0.0004999999999999997
667,0.41326889395713806,0.5229081511497498,0.9,0.79,0.0004999999999999997
668,0.41326889395713806,0.522899329662323,0.9,0.79,0.0004999999999999997
669,0.4132688641548157,0.522891640663147,0.9,0.79,0.0004999999999999997
670,0.4132688045501709,0.5228851437568665,0.9,0.79,0.0004999999999999997
671,0.4132688045501709,0.522881269454956,0.9,0.79,0.0004999999999999997
672,0.4132688045501709,0.5228754281997681,0.9,0.79,0.0004999999999999997
673,0.4132687747478485,0.5228723287582397,0.9,0.79,0.0004999999999999997
674,0.4132688045501709,0.5228694677352905,0.9,0.79,0.0004999999999999997
675,0.4132687747478485,0.5228620171546936,0.9,0.79,0.0004999999999999997
676,0.4132687449455261,0.5228581428527832,0.9,0.79,0.0004999999999999997
677,0.41326868534088135,0.522853672504425,0.9,0.79,0.0004999999999999997
678,0.4132687747478485,0.5228482484817505,0.9,0.79,0.0004999999999999997
679,0.41326868534088135,0.5228437185287476,0.9,0.79,0.0004999999999999997
680,0.41326865553855896,0.5228396058082581,0.9,0.79,0.0004999999999999997
681,0.41326868534088135,0.5228327512741089,0.9,0.79,0.0004999999999999997
682,0.4132687747478485,0.5228268504142761,0.9,0.79,0.0004999999999999997
683,0.41326865553855896,0.5228217840194702,0.9,0.79,0.0004999999999999997
684,0.4132686257362366,0.5228180885314941,0.9,0.79,0.0004999999999999997
685,0.4132686257362366,0.5228097438812256,0.9,0.79,0.00039685026299204955
686,0.4132685959339142,0.5228080153465271,0.9,0.79,0.00039685026299204955
687,0.4132685959339142,0.5228011608123779,0.9,0.79,0.00039685026299204955
688,0.4132685959339142,0.5227957367897034,0.9,0.79,0.00039685026299204955
689,0.4132686257362366,0.522791862487793,0.9,0.79,0.00039685026299204955
690,0.4132685363292694,0.5227896571159363,0.9,0.79,0.00039685026299204955
691,0.4132685959339142,0.5227845907211304,0.9,0.79,0.00039685026299204955
692,0.4132685363292694,0.5227802395820618,0.9,0.79,0.00039685026299204955
693,0.413268506526947,0.5227750539779663,0.9,0.79,0.00039685026299204955
694,0.413268506526947,0.5227717757225037,0.9,0.79,0.00039685026299204955
695,0.413268506526947,0.5227667689323425,0.9,0.79,0.00039685026299204955
696,0.4132685363292694,0.522761881351471,0.9,0.79,0.00039685026299204955
697,0.413268506526947,0.5227565765380859,0.9,0.79,0.00039685026299204955
698,0.413268506526947,0.522753119468689,0.9,0.79,0.00039685026299204955
699,0.413268506526947,0.5227472186088562,0.9,0.79,0.00039685026299204955
700,0.41326847672462463,0.5227413773536682,0.9,0.79,0.00039685026299204955
701,0.41326844692230225,0.5227360129356384,0.9,0.79,0.00039685026299204955
702,0.413268506526947,0.5227316617965698,0.9,0.79,0.00039685026299204955
703,0.41326838731765747,0.5227285623550415,0.9,0.79,0.00039685026299204955
704,0.41326847672462463,0.5227250456809998,0.9,0.79,0.00039685026299204955
705,0.41326847672462463,0.5227178335189819,0.9,0.79,0.00039685026299204955
706,0.41326844692230225,0.5227159857749939,0.9,0.79,0.00039685026299204955
707,0.41326844692230225,0.522711992263794,0.9,0.79,0.00039685026299204955
708,0.41326844692230225,0.5227075815200806,0.9,0.79,0.00039685026299204955
709,0.4132683575153351,0.5227038860321045,0.9,0.79,0.00039685026299204955
710,0.4132683575153351,0.5226958990097046,0.9,0.79,0.00039685026299204955
711,0.4132683277130127,0.5226954221725464,0.9,0.79,0.00039685026299204955
712,0.4132683277130127,0.5226901173591614,0.9,0.79,0.00039685026299204955
713,0.4132683277130127,0.5226874351501465,0.9,0.79,0.00039685026299204955
714,0.4132683575153351,0.5226796865463257,0.9,0.79,0.00039685026299204955
715,0.4132683277130127,0.5226765871047974,0.9,0.79,0.00039685026299204955
716,0.4132683277130127,0.5226703882217407,0.9,0.79,0.00039685026299204955
717,0.4132683277130127,0.5226653814315796,0.9,0.79,0.00039685026299204955
718,0.4132683575153351,0.5226632356643677,0.9,0.79,0.00039685026299204955
719,0.41326823830604553,0.5226558446884155,0.9,0.79,0.00039685026299204955
720,0.41326823830604553,0.5226510167121887,0.9,0.79,0.00039685026299204955
721,0.41326823830604553,0.5226473212242126,0.9,0.79,0.00039685026299204955
722,0.41326823830604553,0.5226415395736694,0.9,0.79,0.00039685026299204955
723,0.41326820850372314,0.5226413607597351,0.9,0.79,0.00039685026299204955
724,0.4132683277130127,0.5226379036903381,0.9,0.79,0.00039685026299204955
725,0.41326820850372314,0.5226316452026367,0.9,0.79,0.00039685026299204955
726,0.41326817870140076,0.5226277709007263,0.9,0.79,0.00039685026299204955
727,0.41326820850372314,0.5226215720176697,0.9,0.79,0.00039685026299204955
728,0.41326817870140076,0.5226150751113892,0.9,0.79,0.00039685026299204955
729,0.41326820850372314,0.5226145386695862,0.9,0.79,0.00039685026299204955
730,0.41326817870140076,0.5226095914840698,0.9,0.79,0.00039685026299204955
731,0.41326817870140076,0.5226061344146729,0.9,0.79,0.00039685026299204955
732,0.4132680892944336,0.5226025581359863,0.9,0.79,0.00039685026299204955
733,0.41326820850372314,0.5225962996482849,0.9,0.79,0.00039685026299204955
734,0.413268119096756,0.5225899815559387,0.9,0.79,0.00039685026299204955
735,0.4132680892944336,0.5225880742073059,0.9,0.79,0.00039685026299204955
736,0.4132680892944336,0.5225834846496582,0.9,0.79,0.00039685026299204955
737,0.413268119096756,0.5225809216499329,0.9,0.79,0.00039685026299204955
738,0.413268119096756,0.5225740075111389,0.9,0.79,0.00039685026299204955
739,0.413268119096756,0.5225679278373718,0.9,0.79,0.00039685026299204955
740,0.4132680892944336,0.5225620865821838,0.9,0.79,0.00039685026299204955
741,0.4132680892944336,0.5225567817687988,0.9,0.79,0.00039685026299204955
742,0.413268119096756,0.5225546956062317,0.9,0.79,0.00039685026299204955
743,0.4132680594921112,0.5225469470024109,0.9,0.79,0.00039685026299204955
744,0.4132680892944336,0.5225433111190796,0.9,0.79,0.00039685026299204955
745,0.4132680594921112,0.5225380063056946,0.9,0.79,0.00039685026299204955
746,0.41326799988746643,0.5225340127944946,0.9,0.79,0.00039685026299204955
747,0.4132680594921112,0.5225275754928589,0.9,0.79,0.00039685026299204955
748,0.41326799988746643,0.5225231647491455,0.9,0.79,0.00039685026299204955
749,0.41326797008514404,0.5225167870521545,0.9,0.79,0.00039685026299204955
750,0.41326799988746643,0.5225110650062561,0.9,0.79,0.00039685026299204955
751,0.41326794028282166,0.5225068926811218,0.9,0.79,0.00039685026299204955
752,0.41326797008514404,0.522502601146698,0.9,0.79,0.00039685026299204955
753,0.41326794028282166,0.5224994421005249,0.9,0.79,0.00039685026299204955
754,0.41326794028282166,0.5224940180778503,0.9,0.79,0.00039685026299204955
755,0.41326794028282166,0.5224894881248474,0.9,0.79,0.00039685026299204955
756,0.41326794028282166,0.5224859714508057,0.9,0.79,0.00039685026299204955
757,0.41326794028282166,0.5224817395210266,0.9,0.79,0.00039685026299204955
758,0.41326791048049927,0.5224743485450745,0.9,0.79,0.00039685026299204955
759,0.41326794028282166,0.5224728584289551,0.9,0.79,0.00039685026299204955
760,0.4132678210735321,0.5224692821502686,0.9,0.79,0.00039685026299204955
761,0.4132678508758545,0.5224637389183044,0.9,0.79,0.00039685026299204955
762,0.4132678508758545,0.5224624276161194,0.9,0.79,0.00039685026299204955
763,0.41326794028282166,0.5224570631980896,0.9,0.79,0.00039685026299204955
764,0.41326791048049927,0.5224546790122986,0.9,0.79,0.00039685026299204955
765,0.4132678508758545,0.5224468111991882,0.9,0.79,0.00039685026299204955
766,0.4132677912712097,0.5224412083625793,0.9,0.79,0.00039685026299204955
767,0.4132678210735321,0.5224364399909973,0.9,0.79,0.00039685026299204955
768,0.4132677912712097,0.522433876991272,0.9,0.79,0.00039685026299204955
769,0.4132678508758545,0.5224250555038452,0.9,0.79,0.00039685026299204955
770,0.4132678210735321,0.5224193334579468,0.9,0.79,0.00039685026299204955
771,0.4132677912712097,0.5224139094352722,0.9,0.79,0.00039685026299204955
772,0.41326773166656494,0.5224103331565857,0.9,0.79,0.00039685026299204955
773,0.4132678210735321,0.5224053859710693,0.9,0.79,0.00039685026299204955
774,0.4132677912712097,0.5223979353904724,0.9,0.79,0.00039685026299204955
775,0.41326773166656494,0.5223925709724426,0.9,0.79,0.00039685026299204955
776,0.41326773166656494,0.5223873257637024,0.9,0.79,0.00039685026299204955
777,0.41326773166656494,0.522381603717804,0.9,0.79,0.00039685026299204955
778,0.41326770186424255,0.5223768353462219,0.9,0.79,0.00039685026299204955
779,0.41326770186424255,0.5223727822303772,0.9,0.79,0.00039685026299204955
780,0.41326770186424255,0.5223661065101624,0.9,0.79,0.00039685026299204955
781,0.41326767206192017,0.5223637223243713,0.9,0.79,0.00039685026299204955
782,0.41326767206192017,0.5223632454872131,0.9,0.79,0.00039685026299204955
783,0.41326767206192017,0.5223600268363953,0.9,0.79,0.00039685026299204955
784,0.41326770186424255,0.5223514437675476,0.9,0.79,0.00039685026299204955
785,0.41326767206192017,0.5223507881164551,0.9,0.79,0.00039685026299204955
786,0.41326770186424255,0.5223445296287537,0.9,0.79,0.00031498026247371797
787,0.41326767206192017,0.5223402380943298,0.9,0.79,0.00031498026247371797
788,0.4132676422595978,0.5223358869552612,0.9,0.79,0.00031498026247371797
789,0.41326770186424255,0.5223298072814941,0.9,0.79,0.00031498026247371797
790,0.4132676422595978,0.5223296880722046,0.9,0.79,0.00031498026247371797
791,0.413267582654953,0.5223250985145569,0.9,0.79,0.00031498026247371797
792,0.4132676422595978,0.5223214030265808,0.9,0.79,0.00031498026247371797
793,0.413267582654953,0.5223164558410645,0.9,0.79,0.00031498026247371797
794,0.413267582654953,0.5223088264465332,0.9,0.79,0.00031498026247371797
795,0.4132675528526306,0.5223053097724915,0.9,0.79,0.00031498026247371797
796,0.4132675528526306,0.5222999453544617,0.9,0.79,0.00031498026247371797
797,0.413267582654953,0.5222960114479065,0.9,0.79,0.00031498026247371797
798,0.4132675528526306,0.522290825843811,0.9,0.79,0.00031498026247371797
799,0.413267582654953,0.5222889184951782,0.9,0.79,0.00031498026247371797
800,0.4132675528526306,0.5222851634025574,0.9,0.79,0.00031498026247371797
801,0.4132675230503082,0.5222820043563843,0.9,0.79,0.00031498026247371797
802,0.4132675528526306,0.522279679775238,0.9,0.79,0.00031498026247371797
803,0.4132675230503082,0.5222753286361694,0.9,0.79,0.00031498026247371797
804,0.4132675528526306,0.5222704410552979,0.9,0.79,0.00031498026247371797
805,0.4132675230503082,0.5222671627998352,0.9,0.79,0.00031498026247371797
806,0.4132675230503082,0.5222640037536621,0.9,0.79,0.00031498026247371797
807,0.4132675230503082,0.5222594738006592,0.9,0.79,0.00031498026247371797
808,0.41326749324798584,0.5222536325454712,0.9,0.79,0.00031498026247371797
809,0.4132675230503082,0.5222523212432861,0.9,0.79,0.00031498026247371797
810,0.4132675528526306,0.5222471952438354,0.9,0.79,0.00031498026247371797
811,0.41326749324798584,0.5222455859184265,0.9,0.79,0.00031498026247371797
812,0.41326749324798584,0.5222401022911072,0.9,0.79,0.00031498026247371797
813,0.4132675528526306,0.5222353339195251,0.9,0.79,0.00031498026247371797
814,0.41326743364334106,0.522230863571167,0.9,0.79,0.00031498026247371797
815,0.41326743364334106,0.5222262740135193,0.9,0.79,0.00031498026247371797
816,0.41326743364334106,0.5222238302230835,0.9,0.79,0.00031498026247371797
817,0.41326743364334106,0.5222195386886597,0.9,0.79,0.00031498026247371797
818,0.4132673740386963,0.5222142934799194,0.9,0.79,0.00031498026247371797
819,0.4132673740386963,0.5222100615501404,0.9,0.79,0.00031498026247371797
820,0.4132674038410187,0.522208571434021,0.9,0.79,0.00031498026247371797
821,0.41326743364334106,0.5222060680389404,0.9,0.79,0.00031498026247371797
822,0.4132673144340515,0.5222021341323853,0.9,0.79,0.00031498026247371797
823,0.4132673740386963,0.5221965909004211,0.9,0.79,0.00031498026247371797
824,0.4132673740386963,0.5221920013427734,0.9,0.79,0.00031498026247371797
825,0.4132674038410187,0.5221856832504272,0.9,0.79,0.00031498026247371797
826,0.4132673740386963,0.5221842527389526,0.9,0.79,0.00031498026247371797
827,0.4132674038410187,0.5221821665763855,0.9,0.79,0.00031498026247371797
828,0.4132673144340515,0.5221778750419617,0.9,0.79,0.00031498026247371797
829,0.4132673740386963,0.5221729874610901,0.9,0.79,0.00031498026247371797
830,0.4132673144340515,0.5221701860427856,0.9,0.79,0.00031498026247371797
831,0.4132673144340515,0.5221639275550842,0.9,0.79,0.00031498026247371797
832,0.4132673144340515,0.5221594572067261,0.9,0.79,0.00031498026247371797
833,0.4132673144340515,0.5221543312072754,0.9,0.79,0.00031498026247371797
834,0.4132673144340515,0.5221508145332336,0.9,0.79,0.00031498026247371797
835,0.4132673144340515,0.5221461057662964,0.9,0.79,0.00031498026247371797
836,0.41326725482940674,0.5221450328826904,0.9,0.79,0.00031498026247371797
837,0.4132673144340515,0.522142767906189,0.9,0.79,0.00031498026247371797
838,0.4132673144340515,0.5221379995346069,0.9,0.79,0.00031498026247371797
839,0.4132672846317291,0.5221337676048279,0.9,0.79,0.00031498026247371797
840,0.41326722502708435,0.5221299529075623,0.9,0.79,0.00031498026247371797
841,0.41326722502708435,0.5221266150474548,0.9,0.79,0.00031498026247371797
842,0.41326722502708435,0.5221209526062012,0.9,0.79,0.00031498026247371797
843,0.41326725482940674,0.5221195220947266,0.9,0.79,0.00031498026247371797
844,0.4132671654224396,0.5221143960952759,0.9,0.79,0.00031498026247371797
845,0.4132671654224396,0.5221099257469177,0.9,0.79,0.00031498026247371797
846,0.41326725482940674,0.5221059918403625,0.9,0.79,0.00031498026247371797
847,0.41326722502708435,0.5221021771430969,0.9,0.79,0.00031498026247371797
848,0.4132671654224396,0.5220978260040283,0.9,0.79,0.00031498026247371797
849,0.41326725482940674,0.5220924615859985,0.9,0.79,0.00031498026247371797
850,0.41326725482940674,0.522086501121521,0.9,0.79,0.00031498026247371797
851,0.4132671356201172,0.5220835208892822,0.9,0.79,0.00031498026247371797
852,0.4132671654224396,0.5220794081687927,0.9,0.79,0.00031498026247371797
853,0.41326725482940674,0.5220754146575928,0.9,0.79,0.00031498026247371797
854,0.41326722502708435,0.5220699906349182,0.9,0.79,0.00031498026247371797
855,0.4132671058177948,0.5220655202865601,0.9,0.79,0.00031498026247371797
856,0.41326722502708435,0.5220597982406616,0.9,0.79,0.00031498026247371797
857,0.4132671058177948,0.5220575332641602,0.9,0.79,0.00031498026247371797
858,0.4132671654224396,0.5220522880554199,0.9,0.79,0.00031498026247371797
859,0.4132671058177948,0.522052526473999,0.9,0.79,0.00031498026247371797
860,0.4132671356201172,0.5220503807067871,0.9,0.79,0.00031498026247371797
861,0.4132671058177948,0.5220449566841125,0.9,0.79,0.00031498026247371797
862,0.4132671058177948,0.5220388174057007,0.9,0.79,0.00031498026247371797
863,0.4132671058177948,0.5220344066619873,0.9,0.79,0.00031498026247371797
864,0.4132671356201172,0.5220323204994202,0.9,0.79,0.00031498026247371797
865,0.4132671058177948,0.5220292806625366,0.9,0.79,0.00031498026247371797
866,0.4132671058177948,0.522027313709259,0.9,0.79,0.00031498026247371797
867,0.41326704621315,0.5220220685005188,0.9,0.79,0.00031498026247371797
868,0.41326704621315,0.522015392780304,0.9,0.79,0.00031498026247371797
869,0.4132671058177948,0.5220093131065369,0.9,0.79,0.00031498026247371797
870,0.4132671058177948,0.5220077037811279,0.9,0.79,0.00031498026247371797
871,0.41326704621315,0.521999716758728,0.9,0.79,0.00031498026247371797
872,0.4132671058177948,0.5219983458518982,0.9,0.79,0.00031498026247371797
873,0.41326704621315,0.5219926238059998,0.9,0.79,0.00031498026247371797
874,0.41326704621315,0.5219876766204834,0.9,0.79,0.00031498026247371797
875,0.41326704621315,0.5219837427139282,0.9,0.79,0.00031498026247371797
876,0.41326704621315,0.5219807624816895,0.9,0.79,0.00031498026247371797
877,0.41326701641082764,0.5219756364822388,0.9,0.79,0.00031498026247371797
878,0.4132671058177948,0.5219705700874329,0.9,0.79,0.00031498026247371797
879,0.41326701641082764,0.5219650864601135,0.9,0.79,0.00031498026247371797
880,0.41326698660850525,0.5219617486000061,0.9,0.79,0.00031498026247371797
881,0.41326701641082764,0.5219563841819763,0.9,0.79,0.00031498026247371797
882,0.41326704621315,0.5219553112983704,0.9,0.79,0.00031498026247371797
883,0.41326698660850525,0.521950364112854,0.9,0.79,0.00031498026247371797
884,0.41326701641082764,0.5219457745552063,0.9,0.79,0.00031498026247371797
885,0.41326698660850525,0.5219441056251526,0.9,0.79,0.00031498026247371797
886,0.41326698660850525,0.5219404697418213,0.9,0.79,0.00031498026247371797
887,0.41326698660850525,0.5219367146492004,0.9,0.79,0.0002499999999999997
888,0.4132668972015381,0.5219321250915527,0.9,0.79,0.0002499999999999997
889,0.41326701641082764,0.5219293236732483,0.9,0.79,0.0002499999999999997
890,0.4132668972015381,0.5219247341156006,0.9,0.79,0.0002499999999999997
891,0.41326695680618286,0.5219239592552185,0.9,0.79,0.0002499999999999997
892,0.41326698660850525,0.5219217538833618,0.9,0.79,0.0002499999999999997
893,0.4132668972015381,0.5219180583953857,0.9,0.79,0.0002499999999999997
894,0.41326695680618286,0.5219148397445679,0.9,0.79,0.0002499999999999997
895,0.41326695680618286,0.5219143629074097,0.9,0.79,0.0002499999999999997
896,0.4132668972015381,0.5219109654426575,0.9,0.79,0.0002499999999999997
897,0.4132668972015381,0.5219053030014038,0.9,0.79,0.0002499999999999997
898,0.41326695680618286,0.5219018459320068,0.9,0.79,0.0002499999999999997
899,0.41326698660850525,0.5218983888626099,0.9,0.79,0.0002499999999999997
900,0.41326695680618286,0.5218943953514099,0.9,0.79,0.0002499999999999997
901,0.4132668972015381,0.5218914151191711,0.9,0.79,0.0002499999999999997
902,0.41326698660850525,0.5218863487243652,0.9,0.79,0.0002499999999999997
903,0.4132668972015381,0.521885097026825,0.9,0.79,0.0002499999999999997
904,0.4132668972015381,0.5218836665153503,0.9,0.79,0.0002499999999999997
905,0.4132668972015381,0.5218806266784668,0.9,0.79,0.0002499999999999997
906,0.4132668972015381,0.5218751430511475,0.9,0.79,0.0002499999999999997
907,0.4132668673992157,0.5218725204467773,0.9,0.79,0.0002499999999999997
908,0.4132668673992157,0.5218678116798401,0.9,0.79,0.0002499999999999997
909,0.4132668673992157,0.5218631029129028,0.9,0.79,0.0002499999999999997
910,0.4132668673992157,0.521859884262085,0.9,0.79,0.0002499999999999997
911,0.4132668673992157,0.5218534469604492,0.9,0.79,0.0002499999999999997
912,0.4132668673992157,0.5218520164489746,0.9,0.79,0.0002499999999999997
913,0.4132668375968933,0.5218465328216553,0.9,0.79,0.0002499999999999997
914,0.4132668673992157,0.5218413472175598,0.9,0.79,0.0002499999999999997
915,0.41326677799224854,0.5218395590782166,0.9,0.79,0.0002499999999999997
916,0.4132668375968933,0.5218374133110046,0.9,0.79,0.0002499999999999997
917,0.4132668375968933,0.521834135055542,0.9,0.79,0.0002499999999999997
918,0.4132668375968933,0.5218286514282227,0.9,0.79,0.0002499999999999997
919,0.4132668375968933,0.5218292474746704,0.9,0.79,0.0002499999999999997
920,0.4132668375968933,0.521826446056366,0.9,0.79,0.0002499999999999997
921,0.41326677799224854,0.5218220353126526,0.9,0.79,0.0002499999999999997
922,0.41326677799224854,0.5218155980110168,0.9,0.79,0.0002499999999999997
923,0.4132668375968933,0.5218124389648438,0.9,0.79,0.0002499999999999997
924,0.41326677799224854,0.5218123197555542,0.9,0.79,0.0002499999999999997
925,0.41326677799224854,0.5218071937561035,0.9,0.79,0.0002499999999999997
926,0.4132668673992157,0.5218066573143005,0.9,0.79,0.0002499999999999997
927,0.41326677799224854,0.5218039155006409,0.9,0.79,0.0002499999999999997
928,0.41326677799224854,0.5218021869659424,0.9,0.79,0.0002499999999999997
929,0.41326674818992615,0.5217956304550171,0.9,0.79,0.0002499999999999997
930,0.41326677799224854,0.5217930674552917,0.9,0.79,0.0002499999999999997
931,0.41326677799224854,0.521791398525238,0.9,0.79,0.0002499999999999997
932,0.41326674818992615,0.5217883586883545,0.9,0.79,0.0002499999999999997
933,0.41326674818992615,0.5217856168746948,0.9,0.79,0.0002499999999999997
934,0.41326674818992615,0.521780788898468,0.9,0.79,0.0002499999999999997
935,0.41326674818992615,0.5217742323875427,0.9,0.79,0.0002499999999999997
936,0.41326674818992615,0.5217722058296204,0.9,0.79,0.0002499999999999997
937,0.41326677799224854,0.5217676758766174,0.9,0.79,0.0002499999999999997
938,0.41326668858528137,0.5217636227607727,0.9,0.79,0.0002499999999999997
939,0.41326671838760376,0.5217601656913757,0.9,0.79,0.0002499999999999997
940,0.41326671838760376,0.5217564702033997,0.9,0.79,0.0002499999999999997
941,0.41326677799224854,0.5217521786689758,0.9,0.79,0.0002499999999999997
942,0.41326671838760376,0.5217492580413818,0.9,0.79,0.0002499999999999997
943,0.41326671838760376,0.5217458605766296,0.9,0.79,0.0002499999999999997
944,0.41326668858528137,0.5217416882514954,0.9,0.79,0.0002499999999999997
945,0.41326668858528137,0.5217403173446655,0.9,0.79,0.0002499999999999997
946,0.41326677799224854,0.521735429763794,0.9,0.79,0.0002499999999999997
947,0.4132666289806366,0.5217321515083313,0.9,0.79,0.0002499999999999997
948,0.41326668858528137,0.5217291712760925,0.9,0.79,0.0002499999999999997
949,0.41326668858528137,0.5217258334159851,0.9,0.79,0.0002499999999999997
950,0.41326668858528137,0.5217219591140747,0.9,0.79,0.0002499999999999997
951,0.4132666289806366,0.5217170119285583,0.9,0.79,0.0002499999999999997
952,0.41326671838760376,0.5217166543006897,0.9,0.79,0.0002499999999999997
953,0.4132666289806366,0.5217174291610718,0.9,0.79,0.0002499999999999997
954,0.41326668858528137,0.5217113494873047,0.9,0.79,0.0002499999999999997
955,0.41326668858528137,0.5217070579528809,0.9,0.79,0.0002499999999999997
956,0.41326671838760376,0.5217037200927734,0.9,0.79,0.0002499999999999997
957,0.41326668858528137,0.5217023491859436,0.9,0.79,0.0002499999999999997
958,0.4132665693759918,0.5216988921165466,0.9,0.79,0.0002499999999999997
959,0.4132665991783142,0.5216938257217407,0.9,0.79,0.0002499999999999997
960,0.4132666289806366,0.5216916799545288,0.9,0.79,0.0002499999999999997
961,0.4132665991783142,0.5216870903968811,0.9,0.79,0.0002499999999999997
962,0.4132665991783142,0.521682620048523,0.9,0.79,0.0002499999999999997
963,0.4132665991783142,0.5216785669326782,0.9,0.79,0.0002499999999999997
964,0.4132665991783142,0.5216792821884155,0.9,0.79,0.0002499999999999997
965,0.4132665991783142,0.5216740965843201,0.9,0.79,0.0002499999999999997
966,0.4132665991783142,0.5216692090034485,0.9,0.79,0.0002499999999999997
967,0.4132665991783142,0.5216626524925232,0.9,0.79,0.0002499999999999997
968,0.4132665991783142,0.5216619372367859,0.9,0.79,0.0002499999999999997
969,0.4132665693759918,0.5216621160507202,0.9,0.79,0.0002499999999999997
970,0.41326653957366943,0.5216594338417053,0.9,0.79,0.0002499999999999997
971,0.4132665693759918,0.5216525197029114,0.9,0.79,0.0002499999999999997
972,0.4132665991783142,0.5216478109359741,0.9,0.79,0.0002499999999999997
973,0.4132665991783142,0.5216432809829712,0.9,0.79,0.0002499999999999997
974,0.4132665991783142,0.5216416120529175,0.9,0.79,0.0002499999999999997
975,0.4132665693759918,0.521638810634613,0.9,0.79,0.0002499999999999997
976,0.4132665693759918,0.5216334462165833,0.9,0.79,0.0002499999999999997
977,0.4132665991783142,0.5216296911239624,0.9,0.79,0.0002499999999999997
978,0.41326647996902466,0.5216253399848938,0.9,0.79,0.0002499999999999997
979,0.4132665693759918,0.5216219425201416,0.9,0.79,0.0002499999999999997
980,0.4132665693759918,0.5216193199157715,0.9,0.79,0.0002499999999999997
981,0.41326653957366943,0.5216167569160461,0.9,0.79,0.0002499999999999997
982,0.4132665693759918,0.5216132998466492,0.9,0.79,0.0002499999999999997
983,0.4132665693759918,0.5216107368469238,0.9,0.79,0.0002499999999999997
984,0.41326647996902466,0.5216055512428284,0.9,0.79,0.0002499999999999997
985,0.41326645016670227,0.5216016173362732,0.9,0.79,0.0002499999999999997
986,0.41326653957366943,0.5215994715690613,0.9,0.79,0.0002499999999999997
987,0.4132665693759918,0.5215991139411926,0.9,0.79,0.0002499999999999997
988,0.41326653957366943,0.5215973854064941,0.9,0.79,0.00019842513149602464
989,0.41326645016670227,0.5215944051742554,0.9,0.79,0.00019842513149602464
990,0.41326647996902466,0.5215941071510315,0.9,0.79,0.00019842513149602464
991,0.41326653957366943,0.5215893387794495,0.9,0.79,0.00019842513149602464
992,0.41326653957366943,0.5215857625007629,0.9,0.79,0.00019842513149602464
993,0.4132664203643799,0.5215848088264465,0.9,0.79,0.00019842513149602464
994,0.41326647996902466,0.52158123254776,0.9,0.79,0.00019842513149602464
995,0.41326653957366943,0.5215777158737183,0.9,0.79,0.00019842513149602464
996,0.41326645016670227,0.5215747356414795,0.9,0.79,0.00019842513149602464
997,0.4132664203643799,0.5215693712234497,0.9,0.79,0.00019842513149602464
998,0.41326647996902466,0.5215662717819214,0.9,0.79,0.00019842513149602464
999,0.41326645016670227,0.5215643048286438,0.9,0.79,0.00019842513149602464
1000,0.4132664203643799,0.5215619802474976,0.9,0.79,0.00019842513149602464
1001,0.41326645016670227,0.521558940410614,0.9,0.79,0.00019842513149602464
1002,0.41326645016670227,0.5215550065040588,0.9,0.79,0.00019842513149602464
1003,0.41326645016670227,0.5215543508529663,0.9,0.79,0.00019842513149602464
1004,0.41326645016670227,0.5215532183647156,0.9,0.79,0.00019842513149602464
1005,0.41326647996902466,0.5215479731559753,0.9,0.79,0.00019842513149602464
1006,0.4132664203643799,0.5215455293655396,0.9,0.79,0.00019842513149602464
1007,0.41326645016670227,0.5215417146682739,0.9,0.79,0.00019842513149602464
1008,0.4132664203643799,0.521538496017456,0.9,0.79,0.00019842513149602464
1009,0.41326645016670227,0.5215370059013367,0.9,0.79,0.00019842513149602464
1010,0.41326645016670227,0.5215344429016113,0.9,0.79,0.00019842513149602464
1011,0.41326645016670227,0.5215287208557129,0.9,0.79,0.00019842513149602464
1012,0.4132663607597351,0.5215259790420532,0.9,0.79,0.00019842513149602464
1013,0.41326645016670227,0.5215214490890503,0.9,0.79,0.00019842513149602464
1014,0.41326645016670227,0.5215219855308533,0.9,0.79,0.00019842513149602464
1015,0.41326645016670227,0.521518349647522,0.9,0.79,0.00019842513149602464
1016,0.4132663607597351,0.5215137600898743,0.9,0.79,0.00019842513149602464
1017,0.4132664203643799,0.5215144753456116,0.9,0.79,0.00019842513149602464
1018,0.4132663607597351,0.5215131640434265,0.9,0.79,0.00019842513149602464
1019,0.41326645016670227,0.5215106010437012,0.9,0.79,0.00019842513149602464
1020,0.4132663607597351,0.5215072631835938,0.9,0.79,0.00019842513149602464
1021,0.4132663309574127,0.521502673625946,0.9,0.79,0.00019842513149602464
1022,0.41326645016670227,0.5214993357658386,0.9,0.79,0.00019842513149602464
1023,0.4132663309574127,0.5214992165565491,0.9,0.79,0.00019842513149602464
1024,0.4132663309574127,0.5214936137199402,0.9,0.79,0.00019842513149602464
1025,0.4132664203643799,0.5214920043945312,0.9,0.79,0.00019842513149602464
1026,0.4132663607597351,0.5214908123016357,0.9,0.79,0.00019842513149602464
1027,0.41326645016670227,0.5214884281158447,0.9,0.79,0.00019842513149602464
1028,0.4132663607597351,0.5214858651161194,0.9,0.79,0.00019842513149602464
1029,0.4132663309574127,0.5214840769767761,0.9,0.79,0.00019842513149602464
1030,0.4132663607597351,0.5214830040931702,0.9,0.79,0.00019842513149602464
1031,0.4132663309574127,0.5214787125587463,0.9,0.79,0.00019842513149602464
1032,0.4132663309574127,0.5214711427688599,0.9,0.79,0.00019842513149602464
1033,0.41326630115509033,0.5214716792106628,0.9,0.79,0.00019842513149602464
1034,0.41326630115509033,0.5214685797691345,0.9,0.79,0.00019842513149602464
1035,0.4132663309574127,0.5214649438858032,0.9,0.79,0.00019842513149602464
1036,0.4132663309574127,0.5214583873748779,0.9,0.79,0.00019842513149602464
1037,0.41326630115509033,0.5214548707008362,0.9,0.79,0.00019842513149602464
1038,0.4132663309574127,0.5214532017707825,0.9,0.79,0.00019842513149602464
1039,0.41326630115509033,0.521450936794281,0.9,0.79,0.00019842513149602464
1040,0.41326627135276794,0.5214489102363586,0.9,0.79,0.00019842513149602464
1041,0.4132663309574127,0.5214450359344482,0.9,0.79,0.00019842513149602464
1042,0.41326630115509033,0.5214452147483826,0.9,0.79,0.00019842513149602464
1043,0.41326630115509033,0.5214418172836304,0.9,0.79,0.00019842513149602464
1044,0.41326627135276794,0.5214383602142334,0.9,0.79,0.00019842513149602464
1045,0.41326627135276794,0.5214381217956543,0.9,0.79,0.00019842513149602464
1046,0.41326630115509033,0.5214348435401917,0.9,0.79,0.00019842513149602464
1047,0.41326630115509033,0.5214311480522156,0.9,0.79,0.00019842513149602464
1048,0.41326630115509033,0.5214303135871887,0.9,0.79,0.00019842513149602464
1049,0.41326621174812317,0.5214269161224365,0.9,0.79,0.00019842513149602464
1050,0.41326627135276794,0.5214266777038574,0.9,0.79,0.00019842513149602464
1051,0.41326627135276794,0.5214245915412903,0.9,0.79,0.00019842513149602464
1052,0.41326627135276794,0.5214210152626038,0.9,0.79,0.00019842513149602464
1053,0.41326621174812317,0.5214178562164307,0.9,0.79,0.00019842513149602464
1054,0.41326621174812317,0.5214160084724426,0.9,0.79,0.00019842513149602464
1055,0.41326627135276794,0.5214112997055054,0.9,0.79,0.00019842513149602464
1056,0.41326630115509033,0.5214071869850159,0.9,0.79,0.00019842513149602464
1057,0.41326627135276794,0.5214053988456726,0.9,0.79,0.00019842513149602464
1058,0.41326627135276794,0.5214024186134338,0.9,0.79,0.00019842513149602464
1059,0.41326627135276794,0.521400511264801,0.9,0.79,0.00019842513149602464
1060,0.41326627135276794,0.5213980078697205,0.9,0.79,0.00019842513149602464
1061,0.41326627135276794,0.5213927030563354,0.9,0.79,0.00019842513149602464
1062,0.41326627135276794,0.521389901638031,0.9,0.79,0.00019842513149602464
1063,0.4132661819458008,0.5213893055915833,0.9,0.79,0.00019842513149602464
1064,0.4132661521434784,0.5213830471038818,0.9,0.79,0.00019842513149602464
1065,0.41326621174812317,0.5213795304298401,0.9,0.79,0.00019842513149602464
1066,0.41326621174812317,0.5213786363601685,0.9,0.79,0.00019842513149602464
1067,0.41326621174812317,0.5213760733604431,0.9,0.79,0.00019842513149602464
1068,0.41326621174812317,0.5213736891746521,0.9,0.79,0.00019842513149602464
1069,0.41326621174812317,0.5213713049888611,0.9,0.79,0.00019842513149602464
1070,0.4132661819458008,0.5213685631752014,0.9,0.79,0.00019842513149602464
1071,0.41326621174812317,0.5213670134544373,0.9,0.79,0.00019842513149602464
1072,0.41326621174812317,0.5213626027107239,0.9,0.79,0.00019842513149602464
1073,0.4132661819458008,0.5213620662689209,0.9,0.79,0.00019842513149602464
1074,0.41326621174812317,0.5213583111763,0.9,0.79,0.00019842513149602464
1075,0.4132661819458008,0.521354079246521,0.9,0.79,0.00019842513149602464
1076,0.41326621174812317,0.5213514566421509,0.9,0.79,0.00019842513149602464
1077,0.41326621174812317,0.521350085735321,0.9,0.79,0.00019842513149602464
1078,0.4132661521434784,0.5213467478752136,0.9,0.79,0.00019842513149602464
1079,0.41326621174812317,0.521344780921936,0.9,0.79,0.00019842513149602464
1080,0.4132661819458008,0.521341860294342,0.9,0.79,0.00019842513149602464
1081,0.41326621174812317,0.521341860294342,0.9,0.79,0.00019842513149602464
1082,0.4132661819458008,0.521338939666748,0.9,0.79,0.00019842513149602464
1083,0.4132661819458008,0.5213381052017212,0.9,0.79,0.00019842513149602464
1084,0.4132661819458008,0.5213360786437988,0.9,0.79,0.00019842513149602464
1085,0.4132661819458008,0.5213337540626526,0.9,0.79,0.00019842513149602464
1086,0.4132661819458008,0.5213295221328735,0.9,0.79,0.00019842513149602464
1087,0.4132661819458008,0.5213292837142944,0.9,0.79,0.00019842513149602464
1088,0.4132661819458008,0.5213246941566467,0.9,0.79,0.00019842513149602464
1089,0.4132661819458008,0.5213203430175781,0.9,0.79,0.00015749013123685888
1090,0.4132661521434784,0.5213171243667603,0.9,0.79,0.00015749013123685888
1091,0.4132660925388336,0.5213144421577454,0.9,0.79,0.00015749013123685888
1092,0.4132661521434784,0.5213117003440857,0.9,0.79,0.00015749013123685888
1093,0.4132660925388336,0.5213111639022827,0.9,0.79,0.00015749013123685888
1094,0.4132660925388336,0.521308183670044,0.9,0.79,0.00015749013123685888
1095,0.4132661521434784,0.5213063955307007,0.9,0.79,0.00015749013123685888
1096,0.4132661819458008,0.5213040113449097,0.9,0.79,0.00015749013123685888
1097,0.4132661521434784,0.5213011503219604,0.9,0.79,0.00015749013123685888
1098,0.4132660925388336,0.52129727602005,0.9,0.79,0.00015749013123685888
1099,0.41326606273651123,0.5212950110435486,0.9,0.79,0.00015749013123685888
1100,0.41326606273651123,0.5212916135787964,0.9,0.79,0.00015749013123685888
1101,0.41326606273651123,0.5212911367416382,0.9,0.79,0.00015749013123685888
1102,0.4132660925388336,0.5212891101837158,0.9,0.79,0.00015749013123685888
1103,0.41326606273651123,0.5212871432304382,0.9,0.79,0.00015749013123685888
1104,0.4132661521434784,0.5212878584861755,0.9,0.79,0.00015749013123685888
1105,0.4132660925388336,0.5212830901145935,0.9,0.79,0.00015749013123685888
1106,0.4132660925388336,0.5212799310684204,0.9,0.79,0.00015749013123685888
1107,0.4132660925388336,0.5212771892547607,0.9,0.79,0.00015749013123685888
1108,0.41326603293418884,0.5212750434875488,0.9,0.79,0.00015749013123685888
1109,0.4132661521434784,0.5212734937667847,0.9,0.79,0.00015749013123685888
1110,0.4132660925388336,0.5212713479995728,0.9,0.79,0.00015749013123685888
1111,0.4132660925388336,0.5212700366973877,0.9,0.79,0.00015749013123685888
1112,0.41326606273651123,0.5212701559066772,0.9,0.79,0.00015749013123685888
1113,0.41326606273651123,0.5212690234184265,0.9,0.79,0.00015749013123685888
1114,0.41326603293418884,0.5212686061859131,0.9,0.79,0.00015749013123685888
1115,0.4132660925388336,0.5212692022323608,0.9,0.79,0.00015749013123685888
1116,0.41326606273651123,0.5212666392326355,0.9,0.79,0.00015749013123685888
1117,0.41326600313186646,0.5212634801864624,0.9,0.79,0.00015749013123685888
1118,0.41326606273651123,0.5212626457214355,0.9,0.79,0.00015749013123685888
1119,0.41326606273651123,0.5212610363960266,0.9,0.79,0.00015749013123685888
1120,0.4132661521434784,0.5212560892105103,0.9,0.79,0.00015749013123685888
1121,0.41326603293418884,0.5212529897689819,0.9,0.79,0.00015749013123685888
1122,0.41326603293418884,0.521251916885376,0.9,0.79,0.00015749013123685888
1123,0.41326606273651123,0.5212499499320984,0.9,0.79,0.00015749013123685888
1124,0.41326606273651123,0.5212454199790955,0.9,0.79,0.00015749013123685888
1125,0.4132660925388336,0.521245539188385,0.9,0.79,0.00015749013123685888
1126,0.41326606273651123,0.5212435126304626,0.9,0.79,0.00015749013123685888
1127,0.41326606273651123,0.5212430357933044,0.9,0.79,0.00015749013123685888
1128,0.41326603293418884,0.5212392210960388,0.9,0.79,0.00015749013123685888
1129,0.41326600313186646,0.5212379097938538,0.9,0.79,0.00015749013123685888
1130,0.41326603293418884,0.5212382078170776,0.9,0.79,0.00015749013123685888
1131,0.41326603293418884,0.5212359428405762,0.9,0.79,0.00015749013123685888
1132,0.41326603293418884,0.5212324857711792,0.9,0.79,0.00015749013123685888
1133,0.41326603293418884,0.5212259888648987,0.9,0.79,0.00015749013123685888
1134,0.41326603293418884,0.5212252140045166,0.9,0.79,0.00015749013123685888
1135,0.41326603293418884,0.521220862865448,0.9,0.79,0.00015749013123685888
1136,0.41326600313186646,0.5212194323539734,0.9,0.79,0.00015749013123685888
1137,0.4132659435272217,0.5212194323539734,0.9,0.79,0.00015749013123685888
1138,0.41326603293418884,0.5212152600288391,0.9,0.79,0.00015749013123685888
1139,0.41326600313186646,0.5212132930755615,0.9,0.79,0.00015749013123685888
1140,0.41326603293418884,0.5212125778198242,0.9,0.79,0.00015749013123685888
1141,0.41326600313186646,0.5212118029594421,0.9,0.79,0.00015749013123685888
1142,0.4132659435272217,0.521207869052887,0.9,0.79,0.00015749013123685888
1143,0.41326603293418884,0.5212053060531616,0.9,0.79,0.00015749013123685888
1144,0.4132659137248993,0.5212067365646362,0.9,0.79,0.00015749013123685888
1145,0.41326600313186646,0.5212042331695557,0.9,0.79,0.00015749013123685888
1146,0.41326600313186646,0.5212013721466064,0.9,0.79,0.00015749013123685888
1147,0.4132659435272217,0.5212002396583557,0.9,0.79,0.00015749013123685888
1148,0.41326600313186646,0.5212019085884094,0.9,0.79,0.00015749013123685888
1149,0.41326603293418884,0.5211994647979736,0.9,0.79,0.00015749013123685888
1150,0.41326603293418884,0.5211966037750244,0.9,0.79,0.00015749013123685888
1151,0.41326600313186646,0.5211944580078125,0.9,0.79,0.00015749013123685888
1152,0.41326600313186646,0.521192729473114,0.9,0.79,0.00015749013123685888
1153,0.4132659435272217,0.5211917161941528,0.9,0.79,0.00015749013123685888
1154,0.41326600313186646,0.5211895108222961,0.9,0.79,0.00015749013123685888
1155,0.4132659435272217,0.5211866497993469,0.9,0.79,0.00015749013123685888
1156,0.41326600313186646,0.5211837291717529,0.9,0.79,0.00015749013123685888
1157,0.41326600313186646,0.5211846828460693,0.9,0.79,0.00015749013123685888
1158,0.4132659435272217,0.5211804509162903,0.9,0.79,0.00015749013123685888
1159,0.4132659435272217,0.52117919921875,0.9,0.79,0.00015749013123685888
1160,0.4132659435272217,0.5211753249168396,0.9,0.79,0.00015749013123685888
1161,0.4132659137248993,0.5211765170097351,0.9,0.79,0.00015749013123685888
1162,0.4132659137248993,0.5211756229400635,0.9,0.79,0.00015749013123685888
1163,0.4132659137248993,0.5211743712425232,0.9,0.79,0.00015749013123685888
1164,0.4132659435272217,0.52117520570755,0.9,0.79,0.00015749013123685888
1165,0.4132659137248993,0.5211741924285889,0.9,0.79,0.00015749013123685888
1166,0.4132659435272217,0.5211703777313232,0.9,0.79,0.00015749013123685888
1167,0.4132659137248993,0.521166205406189,0.9,0.79,0.00015749013123685888
1168,0.4132659435272217,0.5211659073829651,0.9,0.79,0.00015749013123685888
1169,0.4132659435272217,0.521165668964386,0.9,0.79,0.00015749013123685888
1170,0.4132658839225769,0.5211626291275024,0.9,0.79,0.00015749013123685888
1171,0.4132659435272217,0.521160364151001,0.9,0.79,0.00015749013123685888
1172,0.4132659137248993,0.5211564302444458,0.9,0.79,0.00015749013123685888
1173,0.4132659137248993,0.5211536288261414,0.9,0.79,0.00015749013123685888
1174,0.41326600313186646,0.5211533308029175,0.9,0.79,0.00015749013123685888
1175,0.4132659435272217,0.5211517214775085,0.9,0.79,0.00015749013123685888
1176,0.4132658839225769,0.521146833896637,0.9,0.79,0.00015749013123685888
1177,0.4132658839225769,0.5211428999900818,0.9,0.79,0.00015749013123685888
1178,0.4132659137248993,0.5211440324783325,0.9,0.79,0.00015749013123685888
1179,0.4132659137248993,0.5211421847343445,0.9,0.79,0.00015749013123685888
1180,0.4132659137248993,0.5211425423622131,0.9,0.79,0.00015749013123685888
1181,0.4132658839225769,0.5211421251296997,0.9,0.79,0.00015749013123685888
1182,0.4132658839225769,0.5211408138275146,0.9,0.79,0.00015749013123685888
1183,0.4132659137248993,0.5211402773857117,0.9,0.79,0.00015749013123685888
1184,0.41326582431793213,0.5211389064788818,0.9,0.79,0.00015749013123685888
1185,0.4132658839225769,0.5211350321769714,0.9,0.79,0.00015749013123685888
1186,0.4132659435272217,0.5211332440376282,0.9,0.79,0.00015749013123685888
1187,0.4132658839225769,0.5211321115493774,0.9,0.79,0.00015749013123685888
1188,0.41326582431793213,0.5211306214332581,0.9,0.79,0.00015749013123685888
1189,0.41326582431793213,0.5211268067359924,0.9,0.79,0.00015749013123685888
1190,0.4132658839225769,0.5211243629455566,0.9,0.79,0.00012499999999999976
1191,0.41326582431793213,0.5211224555969238,0.9,0.79,0.00012499999999999976
1192,0.41326579451560974,0.5211198329925537,0.9,0.79,0.00012499999999999976
1193,0.4132658839225769,0.5211197733879089,0.9,0.79,0.00012499999999999976
1194,0.41326582431793213,0.521120011806488,0.9,0.79,0.00012499999999999976
1195,0.41326582431793213,0.5211197137832642,0.9,0.79,0.00012499999999999976
1196,0.41326579451560974,0.5211194753646851,0.9,0.79,0.00012499999999999976
1197,0.41326582431793213,0.5211189985275269,0.9,0.79,0.00012499999999999976
1198,0.41326579451560974,0.5211179256439209,0.9,0.79,0.00012499999999999976
1199,0.4132658839225769,0.5211158394813538,0.9,0.79,0.00012499999999999976
1200,0.4132658839225769,0.5211144089698792,0.9,0.79,0.00012499999999999976
1201,0.41326579451560974,0.5211141705513,0.9,0.79,0.00012499999999999976
1202,0.41326582431793213,0.5211129188537598,0.9,0.79,0.00012499999999999976
1203,0.41326582431793213,0.5211114883422852,0.9,0.79,0.00012499999999999976
1204,0.41326573491096497,0.5211091637611389,0.9,0.79,0.00012499999999999976
1205,0.4132658839225769,0.521111011505127,0.9,0.79,0.00012499999999999976
1206,0.41326582431793213,0.5211078524589539,0.9,0.79,0.00012499999999999976
1207,0.4132658839225769,0.521105170249939,0.9,0.79,0.00012499999999999976
1208,0.41326579451560974,0.5211060643196106,0.9,0.79,0.00012499999999999976
1209,0.41326582431793213,0.5211051106452942,0.9,0.79,0.00012499999999999976
1210,0.4132658839225769,0.5211057066917419,0.9,0.79,0.00012499999999999976
1211,0.41326582431793213,0.5211054682731628,0.9,0.79,0.00012499999999999976
1212,0.41326582431793213,0.5211066603660583,0.9,0.79,0.00012499999999999976
1213,0.41326579451560974,0.5211062431335449,0.9,0.79,0.00012499999999999976
1214,0.41326579451560974,0.5211040377616882,0.9,0.79,0.00012499999999999976
1215,0.41326576471328735,0.5211027264595032,0.9,0.79,0.00012499999999999976
1216,0.41326576471328735,0.5211013555526733,0.9,0.79,0.00012499999999999976
1217,0.41326582431793213,0.5210983753204346,0.9,0.79,0.00012499999999999976
1218,0.41326579451560974,0.5210974216461182,0.9,0.79,0.00012499999999999976
1219,0.41326579451560974,0.5210996866226196,0.9,0.79,0.00012499999999999976
1220,0.41326579451560974,0.5210976600646973,0.9,0.79,0.00012499999999999976
1221,0.41326576471328735,0.5210964679718018,0.9,0.79,0.00012499999999999976
1222,0.41326579451560974,0.5210974812507629,0.9,0.79,0.00012499999999999976
1223,0.41326579451560974,0.5210953950881958,0.9,0.79,0.00012499999999999976
1224,0.41326576471328735,0.5210947394371033,0.9,0.79,0.00012499999999999976
1225,0.41326582431793213,0.5210950374603271,0.9,0.79,0.00012499999999999976
1226,0.41326576471328735,0.5210925936698914,0.9,0.79,0.00012499999999999976
1227,0.4132656753063202,0.5210926532745361,0.9,0.79,0.00012499999999999976
1228,0.4132656753063202,0.5210916996002197,0.9,0.79,0.00012499999999999976
1229,0.41326579451560974,0.5210884213447571,0.9,0.79,0.00012499999999999976
1230,0.41326573491096497,0.5210885405540466,0.9,0.79,0.00012499999999999976
1231,0.41326576471328735,0.5210866928100586,0.9,0.79,0.00012499999999999976
1232,0.41326579451560974,0.5210881233215332,0.9,0.79,0.00012499999999999976
1233,0.41326579451560974,0.5210875272750854,0.9,0.79,0.00012499999999999976
1234,0.4132656753063202,0.5210855007171631,0.9,0.79,0.00012499999999999976
1235,0.41326573491096497,0.5210865139961243,0.9,0.79,0.00012499999999999976
1236,0.41326576471328735,0.5210856795310974,0.9,0.79,0.00012499999999999976
1237,0.41326576471328735,0.5210838317871094,0.9,0.79,0.00012499999999999976
1238,0.41326579451560974,0.5210846066474915,0.9,0.79,0.00012499999999999976
1239,0.41326573491096497,0.5210841298103333,0.9,0.79,0.00012499999999999976
1240,0.41326573491096497,0.5210829377174377,0.9,0.79,0.00012499999999999976
1241,0.41326576471328735,0.5210829973220825,0.9,0.79,0.00012499999999999976
1242,0.41326573491096497,0.52108234167099,0.9,0.79,0.00012499999999999976
1243,0.41326573491096497,0.5210804343223572,0.9,0.79,0.00012499999999999976
1244,0.41326573491096497,0.5210828185081482,0.9,0.79,0.00012499999999999976
1245,0.41326579451560974,0.5210812091827393,0.9,0.79,0.00012499999999999976
1246,0.41326573491096497,0.5210815668106079,0.9,0.79,0.00012499999999999976
1247,0.41326573491096497,0.5210810303688049,0.9,0.79,0.00012499999999999976
1248,0.41326573491096497,0.5210834741592407,0.9,0.79,0.00012499999999999976
1249,0.41326579451560974,0.5210821628570557,0.9,0.79,0.00012499999999999976
1250,0.41326573491096497,0.5210815668106079,0.9,0.79,0.00012499999999999976
1251,0.41326573491096497,0.5210815668106079,0.9,0.79,0.00012499999999999976
1252,0.41326573491096497,0.5210801959037781,0.9,0.79,0.00012499999999999976
1253,0.4132656753063202,0.5210795402526855,0.9,0.79,0.00012499999999999976
1254,0.41326573491096497,0.5210790038108826,0.9,0.79,0.00012499999999999976
1255,0.41326576471328735,0.5210784077644348,0.9,0.79,0.00012499999999999976
1256,0.41326573491096497,0.5210785865783691,0.9,0.79,0.00012499999999999976
1257,0.4132656753063202,0.5210815072059631,0.9,0.79,0.00012499999999999976
1258,0.41326576471328735,0.5210817456245422,0.9,0.79,0.00012499999999999976
1259,0.41326573491096497,0.5210819840431213,0.9,0.79,0.00012499999999999976
1260,0.4132656753063202,0.5210853815078735,0.9,0.79,0.00012499999999999976
1261,0.41326573491096497,0.5210852026939392,0.9,0.79,0.00012499999999999976
1262,0.41326573491096497,0.521084189414978,0.9,0.79,0.00012499999999999976
1263,0.4132656753063202,0.5210809111595154,0.9,0.79,0.00012499999999999976
1264,0.4132656753063202,0.5210822224617004,0.9,0.79,0.00012499999999999976
1265,0.41326573491096497,0.5210803151130676,0.9,0.79,0.00012499999999999976
1266,0.4132656455039978,0.5210840106010437,0.9,0.79,0.00012499999999999976
1267,0.4132656455039978,0.5210850238800049,0.9,0.79,0.00012499999999999976
1268,0.4132656157016754,0.521084189414978,0.9,0.79,0.00012499999999999976
1269,0.4132656455039978,0.5210865139961243,0.9,0.79,0.00012499999999999976
1270,0.4132656157016754,0.5210902690887451,0.9,0.79,0.00012499999999999976
1271,0.4132656157016754,0.521091878414154,0.9,0.79,0.00012499999999999976
1272,0.4132656455039978,0.5210904479026794,0.9,0.79,0.00012499999999999976
1273,0.4132656455039978,0.5210925340652466,0.9,0.79,0.00012499999999999976
1274,0.4132656157016754,0.5210955142974854,0.9,0.79,0.00012499999999999976
1275,0.4132656753063202,0.5210965871810913,0.9,0.79,0.00012499999999999976
1276,0.41326573491096497,0.5211002230644226,0.9,0.79,0.00012499999999999976
1277,0.4132656753063202,0.521101713180542,0.9,0.79,0.00012499999999999976
1278,0.4132656455039978,0.5211012363433838,0.9,0.79,0.00012499999999999976
1279,0.4132656753063202,0.5211021900177002,0.9,0.79,0.00012499999999999976
1280,0.4132656455039978,0.5210991501808167,0.9,0.79,0.00012499999999999976
1281,0.41326573491096497,0.5211015939712524,0.9,0.79,0.00012499999999999976
1282,0.4132656455039978,0.5211054682731628,0.9,0.79,0.00012499999999999976
1283,0.4132656157016754,0.5211101174354553,0.9,0.79,0.00012499999999999976
1284,0.4132656455039978,0.5211111307144165,0.9,0.79,0.00012499999999999976
1285,0.4132656753063202,0.5211151242256165,0.9,0.79,0.00012499999999999976
1286,0.413265585899353,0.5211138725280762,0.9,0.79,0.00012499999999999976
1287,0.4132656157016754,0.5211135745048523,0.9,0.79,0.00012499999999999976
1288,0.4132656157016754,0.5211166143417358,0.9,0.79,0.00012499999999999976
1289,0.4132656157016754,0.5211215019226074,0.9,0.79,0.00012499999999999976
1290,0.413265585899353,0.5211206674575806,0.9,0.79,0.00012499999999999976
1291,0.4132656753063202,0.5211217999458313,0.9,0.79,0.0001
1292,0.4132656753063202,0.5211229920387268,0.9,0.79,0.0001
1293,0.4132656157016754,0.521126925945282,0.9,0.79,0.0001
1294,0.4132656455039978,0.5211279988288879,0.9,0.79,0.0001
1295,0.4132656157016754,0.5211271047592163,0.9,0.79,0.0001
1296,0.413265585899353,0.5211300849914551,0.9,0.79,0.0001
1297,0.4132656157016754,0.5211343765258789,0.9,0.79,0.0001
1298,0.4132656157016754,0.5211376547813416,0.9,0.79,0.0001
1299,0.4132656157016754,0.5211426019668579,0.9,0.79,0.0001
1300,0.4132656455039978,0.5211452841758728,0.9,0.79,0.0001
1301,0.413265585899353,0.5211486220359802,0.9,0.79,0.0001
1302,0.413265585899353,0.52115398645401,0.9,0.79,0.0001
1303,0.4132656157016754,0.5211601853370667,0.9,0.79,0.0001
1304,0.4132656157016754,0.5211641192436218,0.9,0.79,0.0001
1305,0.413265585899353,0.5211708545684814,0.9,0.79,0.0001
1306,0.41326552629470825,0.5211761593818665,0.9,0.79,0.0001
1307,0.413265585899353,0.5211805105209351,0.9,0.79,0.0001
1308,0.4132656157016754,0.521185040473938,0.9,0.79,0.0001
1309,0.413265585899353,0.5211894512176514,0.9,0.79,0.0001
1310,0.413265585899353,0.5211931467056274,0.9,0.79,0.0001
1311,0.4132656157016754,0.521195650100708,0.9,0.79,0.0001
1312,0.4132656157016754,0.5212012529373169,0.9,0.79,0.0001
1313,0.413265585899353,0.5212041139602661,0.9,0.79,0.0001
1314,0.4132656157016754,0.5212094783782959,0.9,0.79,0.0001
1315,0.4132656157016754,0.521213710308075,0.9,0.79,0.0001
1316,0.41326552629470825,0.5212191939353943,0.9,0.79,0.0001
1317,0.413265585899353,0.5212265253067017,0.9,0.79,0.0001
1318,0.413265585899353,0.5212315917015076,0.9,0.79,0.0001
1319,0.413265585899353,0.5212358832359314,0.9,0.79,0.0001
1320,0.41326549649238586,0.5212448835372925,0.9,0.79,0.0001
1321,0.41326552629470825,0.5212523937225342,0.9,0.79,0.0001
1322,0.41326549649238586,0.5212591886520386,0.9,0.79,0.0001
1323,0.41326549649238586,0.5212671756744385,0.9,0.79,0.0001
1324,0.41326552629470825,0.5212765336036682,0.9,0.79,0.0001
1325,0.41326552629470825,0.5212845206260681,0.9,0.79,0.0001
1326,0.41326552629470825,0.5212932825088501,0.9,0.79,0.0001
1327,0.41326552629470825,0.5213051438331604,0.9,0.79,0.0001
1328,0.41326552629470825,0.5213131904602051,0.9,0.79,0.0001
1329,0.41326552629470825,0.5213203430175781,0.9,0.79,0.0001
1330,0.413265585899353,0.5213319659233093,0.9,0.79,0.0001
1331,0.4132654666900635,0.5213398933410645,0.9,0.79,0.0001
1332,0.4132654666900635,0.5213536620140076,0.9,0.79,0.0001
1333,0.41326549649238586,0.521365225315094,0.9,0.79,0.0001
1334,0.41326549649238586,0.521379828453064,0.9,0.79,0.0001
1335,0.41326552629470825,0.521392285823822,0.9,0.79,0.0001
1336,0.41326552629470825,0.521406352519989,0.9,0.79,0.0001
1337,0.41326549649238586,0.5214180946350098,0.9,0.79,0.0001
1338,0.41326549649238586,0.521429181098938,0.9,0.79,0.0001
1339,0.4132654070854187,0.521443784236908,0.9,0.79,0.0001
1340,0.4132654070854187,0.5214563012123108,0.9,0.79,0.0001
1341,0.4132654070854187,0.5214754343032837,0.9,0.79,0.0001
1342,0.4132654070854187,0.5214967131614685,0.9,0.79,0.0001
1343,0.4132654070854187,0.5215120911598206,0.9,0.79,0.0001
1344,0.41326549649238586,0.5215330123901367,0.9,0.79,0.0001
1345,0.4132654070854187,0.5215541124343872,0.9,0.79,0.0001
1346,0.4132654666900635,0.521573543548584,0.9,0.79,0.0001
1347,0.41326552629470825,0.5215928554534912,0.9,0.79,0.0001
1348,0.4132654666900635,0.5216165781021118,0.9,0.79,0.0001
1349,0.4132654070854187,0.5216419100761414,0.9,0.79,0.0001
1350,0.4132654666900635,0.5216689705848694,0.9,0.79,0.0001
1351,0.4132654070854187,0.5216905474662781,0.9,0.79,0.0001
1352,0.4132654070854187,0.5217229723930359,0.9,0.79,0.0001
1353,0.4132654070854187,0.5217472314834595,0.9,0.79,0.0001
1354,0.4132653772830963,0.5217798948287964,0.9,0.79,0.0001
1355,0.41326531767845154,0.5218148231506348,0.9,0.79,0.0001
1356,0.4132653772830963,0.521852970123291,0.9,0.79,0.0001
1357,0.4132653772830963,0.5218937993049622,0.9,0.79,0.0001
1358,0.4132653474807739,0.5219368934631348,0.9,0.79,0.0001
1359,0.4132653474807739,0.5219791531562805,0.9,0.79,0.0001
1360,0.4132653474807739,0.5220237374305725,0.9,0.79,0.0001
1361,0.4132653474807739,0.522074282169342,0.9,0.79,0.0001
1362,0.41326531767845154,0.5221278071403503,0.9,0.79,0.0001
1363,0.4132653772830963,0.5221866369247437,0.9,0.79,0.0001
1364,0.41326531767845154,0.522253155708313,0.9,0.79,0.0001
1365,0.41326531767845154,0.5223245024681091,0.9,0.79,0.0001
1366,0.413265198469162,0.5223981738090515,0.9,0.79,0.0001
1367,0.4132652282714844,0.5224749445915222,0.9,0.79,0.0001
1368,0.4132652282714844,0.5225602984428406,0.9,0.79,0.0001
1369,0.4132652282714844,0.5226566195487976,0.9,0.78,0.0001
1370,0.413265198469162,0.5227530598640442,0.9,0.78,0.0001
1371,0.4132651090621948,0.5228651762008667,0.9,0.78,0.0001
1372,0.41326507925987244,0.522988498210907,0.9,0.78,0.0001
1373,0.41326507925987244,0.5231262445449829,0.9,0.78,0.0001
1374,0.4132649898529053,0.523280680179596,0.9,0.78,0.0001
1375,0.4132649600505829,0.5234514474868774,0.9,0.78,0.0001
1376,0.4132649302482605,0.5236335396766663,0.9,0.78,0.0001
1377,0.4132647216320038,0.5238375663757324,0.9,0.78,0.0001
1378,0.4132646322250366,0.5240597724914551,0.9,0.78,0.0001
1379,0.41326451301574707,0.5243228673934937,0.9,0.78,0.0001
1380,0.41326427459716797,0.5246062874794006,0.9,0.78,0.0001
1381,0.4132639765739441,0.5249085426330566,0.9,0.78,0.0001
1382,0.41326355934143066,0.5252276659011841,0.9,0.78,0.0001
1383,0.4132627248764038,0.5255147814750671,0.9,0.78,0.0001
1384,0.4132613241672516,0.5256693363189697,0.9,0.78,0.0001
1385,0.4132581055164337,0.525215744972229,0.9,0.78,0.0001
1386,0.41324782371520996,0.521399974822998,0.9,0.78,0.0001
1387,0.4131678342819214,0.5145854353904724,0.9,0.8,0.0001
1388,0.4046700596809387,0.5012763738632202,0.91,0.81,0.0001
1389,0.44802555441856384,0.5021039843559265,0.86,0.81,0.0001
1390,0.4113515615463257,0.5225809216499329,0.9,0.79,0.0001
1391,0.4050838053226471,0.5227283239364624,0.91,0.78,0.0001
1392,0.4387451410293579,0.5197328329086304,0.87,0.79,0.0001
1393,0.43233683705329895,0.5312086343765259,0.88,0.78,0.0001
1394,0.4238130450248718,0.5255656242370605,0.89,0.79,0.0001
1395,0.4075346887111664,0.5204578638076782,0.9,0.79,0.0001
1396,0.41255611181259155,0.5096724033355713,0.9,0.8,0.0001
1397,0.4067774713039398,0.503233015537262,0.91,0.81,0.0001
1398,0.40338635444641113,0.5102046728134155,0.91,0.8,0.0001
1399,0.4047466516494751,0.5113452672958374,0.91,0.8,0.0001
1400,0.4049886465072632,0.5125385522842407,0.91,0.8,0.0001
1401,0.40393656492233276,0.5205983519554138,0.91,0.79,0.0001
1402,0.40401947498321533,0.5215198993682861,0.91,0.79,0.0001
1403,0.40391620993614197,0.5157145857810974,0.91,0.8,0.0001
1404,0.40372034907341003,0.5135305523872375,0.91,0.8,0.0001
1405,0.4037668704986572,0.5142949819564819,0.91,0.8,0.0001
1406,0.4038735628128052,0.5194593071937561,0.91,0.79,0.0001
1407,0.4036453664302826,0.5164392590522766,0.91,0.8,0.0001
1408,0.4034995138645172,0.5156963467597961,0.91,0.8,0.0001
1409,0.4034339487552643,0.5174353718757629,0.91,0.79,0.0001
1410,0.4034048318862915,0.5165208578109741,0.91,0.79,0.0001
1411,0.4033929705619812,0.5126606225967407,0.91,0.8,0.0001
1412,0.40339577198028564,0.5091086626052856,0.91,0.81,0.0001
1413,0.4034203290939331,0.5080283284187317,0.91,0.81,0.0001
1414,0.4034698009490967,0.507917046546936,0.91,0.81,0.0001
1415,0.40350520610809326,0.5074432492256165,0.91,0.81,0.0001
1416,0.40347588062286377,0.5072651505470276,0.91,0.81,0.0001
1417,0.4034179747104645,0.5083365440368652,0.91,0.81,0.0001
1418,0.4033765494823456,0.5105991363525391,0.91,0.79,0.0001
1419,0.4033546447753906,0.5128380060195923,0.91,0.79,0.0001
1420,0.40334466099739075,0.514102041721344,0.91,0.79,0.0001
1421,0.4033408761024475,0.5144926905632019,0.91,0.79,0.0001
1422,0.4033408463001251,0.5144572854042053,0.91,0.8,0.0001
1423,0.4033430516719818,0.5143186450004578,0.91,0.8,0.0001
1424,0.4033464789390564,0.5141874551773071,0.91,0.8,0.0001
1425,0.40334999561309814,0.5141221880912781,0.91,0.8,0.0001
1426,0.4033524990081787,0.5141253471374512,0.91,0.8,0.0001
1427,0.4033527076244354,0.5141952633857727,0.91,0.8,0.0001
1428,0.403350293636322,0.514315664768219,0.91,0.8,0.0001
1429,0.40334564447402954,0.5144538283348083,0.91,0.8,0.0001
1430,0.40333983302116394,0.5146141648292542,0.91,0.8,0.0001
1431,0.4033340513706207,0.514788031578064,0.91,0.8,0.0001
1432,0.40332889556884766,0.5150244235992432,0.91,0.8,0.0001
1433,0.4033246636390686,0.5153604745864868,0.91,0.79,0.0001
1434,0.40332138538360596,0.5158225893974304,0.91,0.78,0.0001
1435,0.40331900119781494,0.5163785815238953,0.91,0.79,0.0001
1436,0.40331733226776123,0.5169425010681152,0.91,0.79,0.0001
1437,0.4033161401748657,0.5174617171287537,0.91,0.79,0.0001
1438,0.4033154547214508,0.5178819894790649,0.91,0.79,0.0001
1439,0.4033150374889374,0.5182214379310608,0.91,0.79,0.0001
1440,0.40331482887268066,0.5184459686279297,0.91,0.79,0.0001
1441,0.4033147692680359,0.5185716152191162,0.91,0.79,0.0001
1442,0.4033147096633911,0.5186235904693604,0.91,0.79,0.0001
1443,0.40331459045410156,0.5186276435852051,0.91,0.79,0.0001
1444,0.403314471244812,0.518589973449707,0.91,0.79,0.0001
1445,0.4033142030239105,0.518516480922699,0.91,0.79,0.0001
1446,0.40331387519836426,0.5184326767921448,0.91,0.79,0.0001
1447,0.40331339836120605,0.5183306932449341,0.91,0.79,0.0001
1448,0.4033128321170807,0.5182138681411743,0.91,0.79,0.0001
1449,0.4033122658729553,0.5180873870849609,0.91,0.79,0.0001
1450,0.4033116102218628,0.5179563164710999,0.91,0.79,0.0001
1451,0.40331095457077026,0.5178207159042358,0.91,0.79,0.0001
1452,0.4033103585243225,0.5176825523376465,0.91,0.79,0.0001
1453,0.40330979228019714,0.517555296421051,0.91,0.79,0.0001
1454,0.403309166431427,0.5174230337142944,0.91,0.79,0.0001
1455,0.4033086895942688,0.5173106789588928,0.91,0.79,0.0001
1456,0.4033082127571106,0.5172173380851746,0.91,0.79,0.0001
1457,0.40330788493156433,0.5171329379081726,0.91,0.79,0.0001
1458,0.4033074676990509,0.5170896649360657,0.91,0.79,0.0001
1459,0.4033071994781494,0.5170614719390869,0.91,0.79,0.0001
1460,0.40330684185028076,0.5170580148696899,0.91,0.79,0.0001
1461,0.4033065438270569,0.5170796513557434,0.91,0.79,0.0001
1462,0.40330639481544495,0.5171234607696533,0.91,0.79,0.0001
1463,0.40330612659454346,0.5172007083892822,0.91,0.79,0.0001
1464,0.40330585837364197,0.5172813534736633,0.91,0.79,0.0001
1465,0.4033057689666748,0.5173933506011963,0.91,0.79,0.0001
1466,0.4033055901527405,0.5175159573554993,0.91,0.79,0.0001
1467,0.4033052921295166,0.5176589488983154,0.91,0.79,0.0001
1468,0.40330517292022705,0.5178106427192688,0.91,0.79,0.0001
1469,0.403304785490036,0.5179736614227295,0.91,0.79,0.0001
1470,0.40330466628074646,0.5181341171264648,0.91,0.79,0.0001
1471,0.4033043682575226,0.5183072686195374,0.91,0.79,0.0001
1472,0.40330418944358826,0.5184825658798218,0.91,0.79,0.0001
1473,0.40330392122268677,0.5186474919319153,0.91,0.79,0.0001
1474,0.40330374240875244,0.5188167691230774,0.91,0.79,0.0001
1475,0.40330350399017334,0.5189867615699768,0.91,0.79,0.0001
1476,0.40330326557159424,0.5191426277160645,0.91,0.79,0.0001
1477,0.4033031463623047,0.5192927718162537,0.91,0.79,0.0001
1478,0.4033028483390808,0.5194365382194519,0.91,0.79,0.0001
1479,0.4033026099205017,0.5195754766464233,0.91,0.79,0.0001
1480,0.40330249071121216,0.5197047591209412,0.91,0.79,0.0001
1481,0.4033021926879883,0.5198227167129517,0.91,0.79,0.0001
1482,0.40330204367637634,0.5199235677719116,0.91,0.79,0.0001
1483,0.40330183506011963,0.5200318694114685,0.91,0.79,0.0001
1484,0.4033016562461853,0.5201221704483032,0.91,0.79,0.0001
1485,0.40330153703689575,0.5202081203460693,0.91,0.79,0.0001
1486,0.4033013582229614,0.520282506942749,0.91,0.79,0.0001
1487,0.4033012390136719,0.5203487873077393,0.91,0.79,0.0001
1488,0.40330109000205994,0.520409345626831,0.91,0.79,0.0001
1489,0.40330085158348083,0.5204639434814453,0.91,0.79,0.0001
1490,0.40330079197883606,0.5205164551734924,0.91,0.79,0.0001
1491,0.40330052375793457,0.520560085773468,0.91,0.79,0.0001
1492,0.40330037474632263,0.5206046104431152,0.91,0.79,0.0001
1493,0.4033001959323883,0.5206397771835327,0.91,0.79,0.0001
1494,0.40330013632774353,0.520672619342804,0.91,0.79,0.0001
1495,0.4032999277114868,0.5207009315490723,0.91,0.79,0.0001
1496,0.4032997190952301,0.5207281112670898,0.91,0.79,0.0001
1497,0.4032996892929077,0.5207499861717224,0.91,0.79,0.0001
1498,0.4032994210720062,0.5207672715187073,0.91,0.79,0.0001
1499,0.40329933166503906,0.5207860469818115,0.91,0.79,0.0001
1500,0.40329915285110474,0.5208022594451904,0.91,0.79,0.0001
1501,0.4032989740371704,0.5208209753036499,0.91,0.79,0.0001
1502,0.40329888463020325,0.5208328366279602,0.91,0.79,0.0001
1503,0.4032987356185913,0.5208479166030884,0.91,0.79,0.0001
1504,0.403298556804657,0.5208609104156494,0.91,0.79,0.0001
1505,0.4032984972000122,0.5208727121353149,0.91,0.79,0.0001
1506,0.40329834818840027,0.5208884477615356,0.91,0.79,0.0001
1507,0.40329810976982117,0.5209041833877563,0.91,0.79,0.0001
1508,0.403298020362854,0.5209157466888428,0.91,0.79,0.0001
1509,0.40329787135124207,0.520933210849762,0.91,0.79,0.0001
1510,0.40329769253730774,0.5209497809410095,0.91,0.79,0.0001
1511,0.4032975733280182,0.5209668278694153,0.91,0.79,0.0001
1512,0.40329742431640625,0.5209810733795166,0.91,0.79,0.0001
1513,0.4032973349094391,0.5209985971450806,0.91,0.79,0.0001
1514,0.4032972455024719,0.5210186839103699,0.91,0.79,0.0001
1515,0.4032970666885376,0.5210309624671936,0.91,0.79,0.0001
1516,0.40329691767692566,0.5210481286048889,0.91,0.79,0.0001
1517,0.4032967686653137,0.5210686326026917,0.91,0.79,0.0001
1518,0.40329670906066895,0.5210893154144287,0.91,0.79,0.0001
1519,0.40329650044441223,0.5211125612258911,0.91,0.79,0.0001
1520,0.40329647064208984,0.5211327075958252,0.91,0.79,0.0001
1521,0.4032963216304779,0.5211551785469055,0.91,0.79,0.0001
1522,0.40329620242118835,0.5211751461029053,0.91,0.79,0.0001
1523,0.4032960832118988,0.521195650100708,0.91,0.79,0.0001
1524,0.40329593420028687,0.5212156176567078,0.91,0.79,0.0001
1525,0.4032958149909973,0.5212395191192627,0.91,0.79,0.0001
1526,0.40329575538635254,0.5212631821632385,0.91,0.79,0.0001
1527,0.4032955467700958,0.5212829113006592,0.91,0.79,0.0001
1528,0.40329551696777344,0.5212984681129456,0.91,0.79,0.0001
1529,0.4032953977584839,0.5213213562965393,0.91,0.79,0.0001
1530,0.40329521894454956,0.5213444828987122,0.91,0.79,0.0001
1531,0.4032951295375824,0.5213624835014343,0.91,0.79,0.0001
1532,0.40329501032829285,0.521385133266449,0.91,0.79,0.0001
1533,0.4032948613166809,0.5214092135429382,0.91,0.79,0.0001
1534,0.4032948315143585,0.5214287042617798,0.91,0.79,0.0001
1535,0.40329471230506897,0.5214473009109497,0.91,0.79,0.0001
1536,0.4032945930957794,0.5214651226997375,0.91,0.79,0.0001
1537,0.40329447388648987,0.5214850306510925,0.91,0.79,0.0001
1538,0.40329432487487793,0.5215065479278564,0.91,0.79,0.0001
1539,0.40329432487487793,0.5215273499488831,0.91,0.79,0.0001
1540,0.4032941162586212,0.5215460062026978,0.91,0.79,0.0001
1541,0.40329405665397644,0.5215649604797363,0.91,0.79,0.0001
1542,0.4032939076423645,0.5215820670127869,0.91,0.79,0.0001
1543,0.4032938778400421,0.5216022729873657,0.91,0.79,0.0001
1544,0.40329375863075256,0.52161705493927,0.91,0.79,0.0001
1545,0.403293639421463,0.5216348171234131,0.91,0.79,0.0001
1546,0.40329352021217346,0.5216562151908875,0.91,0.79,0.0001
1547,0.4032934606075287,0.5216695666313171,0.91,0.79,0.0001
1548,0.40329334139823914,0.52168869972229,0.91,0.79,0.0001
1549,0.4032931923866272,0.5217070579528809,0.91,0.79,0.0001
1550,0.4032931625843048,0.521726131439209,0.91,0.79,0.0001
1551,0.40329304337501526,0.5217424035072327,0.91,0.79,0.0001
1552,0.4032929539680481,0.5217562913894653,0.91,0.79,0.0001
1553,0.40329280495643616,0.5217731595039368,0.91,0.79,0.0001
1554,0.4032926857471466,0.52178955078125,0.91,0.79,0.0001
1555,0.40329262614250183,0.5218037962913513,0.91,0.79,0.0001
1556,0.40329253673553467,0.5218207240104675,0.91,0.79,0.0001
1557,0.4032925069332123,0.5218353271484375,0.91,0.79,0.0001
1558,0.40329235792160034,0.5218512415885925,0.91,0.79,0.0001
1559,0.4032922387123108,0.5218687653541565,0.91,0.79,0.0001
1560,0.40329214930534363,0.5218841433525085,0.91,0.79,0.0001
1561,0.40329205989837646,0.5218961238861084,0.91,0.79,0.0001
1562,0.4032919704914093,0.5219142436981201,0.91,0.79,0.0001
1563,0.40329182147979736,0.5219252109527588,0.91,0.79,0.0001
1564,0.403291791677475,0.5219473838806152,0.91,0.79,0.0001
1565,0.4032917022705078,0.5219618082046509,0.91,0.79,0.0001
1566,0.40329161286354065,0.5219749212265015,0.91,0.79,0.0001
1567,0.40329161286354065,0.5219916701316833,0.91,0.79,0.0001
1568,0.40329140424728394,0.5220073461532593,0.91,0.79,0.0001
1569,0.4032913148403168,0.5220205187797546,0.91,0.79,0.0001
1570,0.4032912850379944,0.5220356583595276,0.91,0.79,0.0001
1571,0.4032911956310272,0.5220483541488647,0.91,0.79,0.0001
1572,0.40329110622406006,0.5220603942871094,0.91,0.79,0.0001
1573,0.40329110622406006,0.5220752954483032,0.91,0.79,0.0001
1574,0.40329092741012573,0.5220873355865479,0.91,0.79,0.0001
1575,0.40329086780548096,0.5221022963523865,0.91,0.79,0.0001
1576,0.403290718793869,0.5221184492111206,0.91,0.79,0.0001
1577,0.40329065918922424,0.5221307277679443,0.91,0.79,0.0001
1578,0.40329062938690186,0.522144079208374,0.91,0.79,0.0001
1579,0.4032905697822571,0.5221554636955261,0.91,0.79,0.0001
1580,0.4032904803752899,0.5221697092056274,0.91,0.79,0.0001
1581,0.40329036116600037,0.5221861004829407,0.91,0.79,0.0001
1582,0.4032903015613556,0.5222020149230957,0.91,0.79,0.0001
1583,0.40329018235206604,0.522209644317627,0.91,0.79,0.0001
1584,0.4032900929450989,0.5222246646881104,0.91,0.79,0.0001
1585,0.4032899737358093,0.5222396850585938,0.91,0.79,0.0001
1586,0.40328994393348694,0.5222523212432861,0.91,0.79,0.0001
1587,0.40328988432884216,0.5222682356834412,0.91,0.79,0.0001
1588,0.403289794921875,0.522281289100647,0.91,0.79,0.0001
1589,0.403289794921875,0.5222928524017334,0.91,0.79,0.0001
1590,0.40328964591026306,0.5223050117492676,0.91,0.79,0.0001
1591,0.4032895267009735,0.5223147869110107,0.91,0.79,0.0001
1592,0.4032895565032959,0.5223259329795837,0.91,0.79,0.0001
1593,0.4032893776893616,0.5223374366760254,0.91,0.79,0.0001
1594,0.4032893478870392,0.522352397441864,0.91,0.79,0.0001
1595,0.4032892882823944,0.5223610997200012,0.91,0.79,0.0001
1596,0.40328919887542725,0.5223785638809204,0.91,0.79,0.0001
1597,0.4032891094684601,0.52238929271698,0.91,0.79,0.0001
1598,0.4032891094684601,0.522401750087738,0.91,0.79,0.0001
1599,0.40328896045684814,0.5224132537841797,0.91,0.79,0.0001
1600,0.40328893065452576,0.5224214792251587,0.91,0.79,0.0001
1601,0.40328875184059143,0.5224335193634033,0.91,0.79,0.0001
1602,0.40328875184059143,0.5224466919898987,0.91,0.79,0.0001
1603,0.40328875184059143,0.5224595665931702,0.91,0.79,0.0001
1604,0.40328866243362427,0.5224719047546387,0.91,0.79,0.0001
1605,0.40328845381736755,0.5224878191947937,0.91,0.79,0.0001
1606,0.40328842401504517,0.522497832775116,0.91,0.79,0.0001
1607,0.40328842401504517,0.5225104093551636,0.91,0.79,0.0001
1608,0.40328818559646606,0.5225238800048828,0.91,0.79,0.0001
1609,0.4032882750034332,0.5225315093994141,0.91,0.79,0.0001
1610,0.4032881259918213,0.5225436687469482,0.91,0.79,0.0001
1611,0.4032880663871765,0.5225511193275452,0.91,0.79,0.0001
1612,0.40328800678253174,0.5225622653961182,0.91,0.79,0.0001
1613,0.40328800678253174,0.5225722789764404,0.91,0.79,0.0001
1614,0.4032879173755646,0.5225861072540283,0.91,0.79,0.0001
1615,0.4032878577709198,0.5225976705551147,0.91,0.79,0.0001
1616,0.40328776836395264,0.5226061940193176,0.91,0.79,0.0001
1617,0.40328776836395264,0.5226228833198547,0.91,0.79,0.0001
1618,0.4032876491546631,0.522627592086792,0.91,0.79,0.0001
1619,0.4032875895500183,0.5226389169692993,0.91,0.79,0.0001
1620,0.40328747034072876,0.52264803647995,0.91,0.79,0.0001
1621,0.40328750014305115,0.5226598381996155,0.91,0.79,0.0001
1622,0.40328747034072876,0.5226719379425049,0.91,0.79,0.0001
1623,0.40328744053840637,0.522681474685669,0.91,0.79,0.0001
1624,0.40328723192214966,0.5226913690567017,0.91,0.79,0.0001
1625,0.4032871723175049,0.522706151008606,0.91,0.79,0.0001
1626,0.4032870829105377,0.5227169990539551,0.91,0.79,0.0001
1627,0.4032870829105377,0.52272629737854,0.91,0.79,0.0001
1628,0.40328705310821533,0.5227412581443787,0.91,0.79,0.0001
1629,0.40328696370124817,0.522746741771698,0.91,0.79,0.0001
1630,0.40328681468963623,0.5227560997009277,0.91,0.79,0.0001
1631,0.40328675508499146,0.5227653384208679,0.91,0.79,0.0001
1632,0.40328678488731384,0.522778332233429,0.91,0.79,0.0001
1633,0.4032866656780243,0.5227881073951721,0.91,0.79,0.0001
1634,0.40328657627105713,0.522799015045166,0.91,0.79,0.0001
1635,0.40328657627105713,0.5228086113929749,0.91,0.79,0.0001
1636,0.40328654646873474,0.522819459438324,0.91,0.79,0.0001
1637,0.40328651666641235,0.5228279232978821,0.91,0.79,0.0001
1638,0.403286337852478,0.5228367447853088,0.91,0.79,0.0001
1639,0.403286337852478,0.5228449106216431,0.91,0.79,0.0001
1640,0.4032863676548004,0.5228545069694519,0.91,0.79,0.0001
1641,0.4032862186431885,0.5228622555732727,0.91,0.79,0.0001
1642,0.4032862186431885,0.522871732711792,0.91,0.79,0.0001
1643,0.40328606963157654,0.5228835344314575,0.91,0.79,0.0001
1644,0.40328606963157654,0.5228908658027649,0.91,0.79,0.0001
1645,0.403285950422287,0.5228991508483887,0.91,0.79,0.0001
1646,0.4032858908176422,0.5229083299636841,0.91,0.79,0.0001
1647,0.4032858610153198,0.5229185819625854,0.91,0.79,0.0001
1648,0.4032858610153198,0.5229266881942749,0.91,0.79,0.0001
1649,0.4032857418060303,0.5229374766349792,0.91,0.79,0.0001
1650,0.4032857418060303,0.5229465365409851,0.91,0.79,0.0001
1651,0.4032857120037079,0.5229529738426208,0.91,0.79,0.0001
1652,0.40328559279441833,0.5229629874229431,0.91,0.79,0.0001
1653,0.40328553318977356,0.522972583770752,0.91,0.79,0.0001
1654,0.4032854437828064,0.5229818224906921,0.91,0.79,0.0001
1655,0.4032853841781616,0.522990345954895,0.91,0.79,0.0001
1656,0.40328532457351685,0.5229990482330322,0.91,0.79,0.0001
1657,0.40328526496887207,0.5230088829994202,0.91,0.79,0.0001
1658,0.40328526496887207,0.523016095161438,0.91,0.79,0.0001
1659,0.4032851457595825,0.523021399974823,0.91,0.79,0.0001
1660,0.40328511595726013,0.5230304002761841,0.91,0.79,0.0001
1661,0.40328505635261536,0.5230407118797302,0.91,0.79,0.0001
1662,0.40328505635261536,0.5230482816696167,0.91,0.79,0.0001
1663,0.4032849371433258,0.5230579972267151,0.91,0.79,0.0001
1664,0.4032849073410034,0.5230656862258911,0.91,0.79,0.0001
1665,0.40328478813171387,0.5230712890625,0.91,0.79,0.0001
1666,0.40328487753868103,0.5230807065963745,0.91,0.79,0.0001
1667,0.40328478813171387,0.5230915546417236,0.91,0.79,0.0001
1668,0.4032847583293915,0.5230993032455444,0.91,0.79,0.0001
1669,0.4032847583293915,0.5231057405471802,0.91,0.79,0.0001
1670,0.40328463912010193,0.5231144428253174,0.91,0.79,0.0001
1671,0.40328457951545715,0.5231223106384277,0.91,0.79,0.0001
1672,0.40328457951545715,0.5231307744979858,0.91,0.79,0.0001
1673,0.4032844305038452,0.5231363773345947,0.91,0.79,0.0001
1674,0.4032844305038452,0.5231443643569946,0.91,0.79,0.0001
1675,0.40328434109687805,0.5231540203094482,0.91,0.79,0.0001
1676,0.40328431129455566,0.5231616497039795,0.91,0.79,0.0001
1677,0.40328431129455566,0.5231679677963257,0.91,0.79,0.0001
1678,0.4032842516899109,0.523176908493042,0.91,0.79,0.0001
1679,0.4032841920852661,0.523187518119812,0.91,0.79,0.0001
1680,0.4032841622829437,0.523195207118988,0.91,0.79,0.0001
1681,0.40328410267829895,0.5232009887695312,0.91,0.79,0.0001
1682,0.403283953666687,0.5232115387916565,0.91,0.79,0.0001
1683,0.403283953666687,0.5232203602790833,0.91,0.79,0.0001
1684,0.40328389406204224,0.5232269763946533,0.91,0.79,0.0001
1685,0.40328389406204224,0.523230791091919,0.91,0.79,0.0001
1686,0.40328383445739746,0.5232408046722412,0.91,0.79,0.0001
1687,0.4032837152481079,0.5232446789741516,0.91,0.79,0.0001
1688,0.4032837152481079,0.523251473903656,0.91,0.79,0.0001
1689,0.4032836854457855,0.523261547088623,0.91,0.79,0.0001
1690,0.40328365564346313,0.5232676863670349,0.91,0.79,0.0001
1691,0.40328362584114075,0.5232775211334229,0.91,0.79,0.0001
1692,0.4032835364341736,0.5232859253883362,0.91,0.79,0.0001
1693,0.4032835066318512,0.5232939124107361,0.91,0.79,0.0001
1694,0.4032834768295288,0.5233008861541748,0.91,0.79,0.0001
1695,0.4032834768295288,0.5233081579208374,0.91,0.79,0.0001
1696,0.40328335762023926,0.5233176350593567,0.91,0.79,0.0001
1697,0.4032832980155945,0.5233204960823059,0.91,0.79,0.0001
1698,0.4032832980155945,0.5233255624771118,0.91,0.79,0.0001
1699,0.4032832384109497,0.5233309268951416,0.91,0.79,0.0001
1700,0.4032832086086273,0.5233392119407654,0.91,0.79,0.0001
1701,0.40328314900398254,0.5233486890792847,0.91,0.79,0.0001
1702,0.40328308939933777,0.5233554244041443,0.91,0.79,0.0001
1703,0.403283029794693,0.52336585521698,0.91,0.79,0.0001
1704,0.4032829999923706,0.5233754515647888,0.91,0.79,0.0001
1705,0.4032829701900482,0.523378849029541,0.91,0.79,0.0001
1706,0.40328294038772583,0.5233843922615051,0.91,0.79,0.0001
1707,0.40328285098075867,0.52339106798172,0.91,0.79,0.0001
1708,0.4032828211784363,0.52339768409729,0.91,0.79,0.0001
1709,0.4032827317714691,0.5234012603759766,0.91,0.79,0.0001
1710,0.40328270196914673,0.5234098434448242,0.91,0.79,0.0001
1711,0.4032827317714691,0.5234165191650391,0.91,0.79,0.0001
1712,0.40328267216682434,0.5234217643737793,0.91,0.79,0.0001
1713,0.4032825827598572,0.5234333276748657,0.91,0.79,0.0001
1714,0.40328261256217957,0.5234370231628418,0.91,0.79,0.0001
1715,0.4032825529575348,0.5234413743019104,0.91,0.79,0.0001
1716,0.4032825529575348,0.523446798324585,0.91,0.79,0.0001
1717,0.40328243374824524,0.5234556198120117,0.91,0.79,0.0001
1718,0.40328240394592285,0.5234628915786743,0.91,0.79,0.0001
1719,0.4032823145389557,0.5234673023223877,0.91,0.79,0.0001
1720,0.4032823443412781,0.5234732627868652,0.91,0.79,0.0001
1721,0.4032822549343109,0.5234830975532532,0.91,0.79,0.0001
1722,0.4032822847366333,0.5234891772270203,0.91,0.79,0.0001
1723,0.40328219532966614,0.523495078086853,0.91,0.79,0.0001
1724,0.40328216552734375,0.5235044956207275,0.91,0.79,0.0001
1725,0.4032820463180542,0.5235085487365723,0.91,0.79,0.0001
1726,0.4032820463180542,0.5235135555267334,0.91,0.79,0.0001
1727,0.4032820463180542,0.5235213041305542,0.91,0.79,0.0001
1728,0.4032820165157318,0.5235278606414795,0.91,0.79,0.0001
1729,0.4032819867134094,0.5235335230827332,0.91,0.79,0.0001
1730,0.4032818078994751,0.5235378742218018,0.91,0.79,0.0001
1731,0.4032818675041199,0.523543655872345,0.91,0.79,0.0001
1732,0.4032818675041199,0.5235485434532166,0.91,0.79,0.0001
1733,0.4032818078994751,0.5235549807548523,0.91,0.79,0.0001
1734,0.4032817482948303,0.5235593914985657,0.91,0.79,0.0001
1735,0.40328165888786316,0.5235673785209656,0.91,0.79,0.0001
1736,0.40328165888786316,0.5235706567764282,0.91,0.79,0.0001
1737,0.40328165888786316,0.5235762000083923,0.91,0.79,0.0001
1738,0.4032815992832184,0.5235849022865295,0.91,0.79,0.0001
1739,0.4032815992832184,0.5235897898674011,0.91,0.79,0.0001
1740,0.403281569480896,0.5235955715179443,0.91,0.79,0.0001
1741,0.40328145027160645,0.5236029028892517,0.91,0.79,0.0001
1742,0.40328139066696167,0.5236088037490845,0.91,0.79,0.0001
1743,0.40328145027160645,0.5236144065856934,0.91,0.79,0.0001
1744,0.40328139066696167,0.5236194133758545,0.91,0.79,0.0001
1745,0.4032813310623169,0.523627519607544,0.91,0.79,0.0001
1746,0.40328124165534973,0.5236323475837708,0.91,0.79,0.0001
1747,0.40328124165534973,0.5236397385597229,0.91,0.79,0.0001
1748,0.40328118205070496,0.5236462354660034,0.91,0.79,0.0001
1749,0.40328118205070496,0.5236513614654541,0.91,0.79,0.0001
1750,0.4032811224460602,0.5236562490463257,0.91,0.79,0.0001
1751,0.4032811224460602,0.5236582159996033,0.91,0.79,0.0001
1752,0.40328097343444824,0.5236673951148987,0.91,0.79,0.0001
1753,0.403281033039093,0.5236726999282837,0.91,0.79,0.0001
1754,0.403281033039093,0.5236763954162598,0.91,0.79,0.0001
1755,0.40328097343444824,0.5236824154853821,0.91,0.79,0.0001
1756,0.40328094363212585,0.5236880779266357,0.91,0.79,0.0001
1757,0.40328091382980347,0.5236937999725342,0.91,0.79,0.0001
1758,0.4032808542251587,0.5236990451812744,0.91,0.79,0.0001
1759,0.4032807946205139,0.5237026810646057,0.91,0.79,0.0001
1760,0.40328076481819153,0.5237084031105042,0.91,0.79,0.0001
1761,0.40328076481819153,0.5237165689468384,0.91,0.79,0.0001
1762,0.40328070521354675,0.5237208604812622,0.91,0.79,0.0001
1763,0.403280645608902,0.5237265229225159,0.91,0.79,0.0001
1764,0.4032806158065796,0.523730456829071,0.91,0.79,0.0001
1765,0.403280645608902,0.5237381458282471,0.91,0.79,0.0001
1766,0.4032805263996124,0.5237421989440918,0.91,0.79,0.0001
1767,0.40328043699264526,0.5237491130828857,0.91,0.79,0.0001
1768,0.4032805263996124,0.523756742477417,0.91,0.79,0.0001
1769,0.40328049659729004,0.523760974407196,0.91,0.79,0.0001
1770,0.4032804071903229,0.5237678289413452,0.91,0.79,0.0001
1771,0.4032804071903229,0.5237736105918884,0.91,0.79,0.0001
1772,0.4032802879810333,0.5237805843353271,0.91,0.79,0.0001
1773,0.4032803475856781,0.5237844586372375,0.91,0.79,0.0001
1774,0.4032802879810333,0.5237889289855957,0.91,0.79,0.0001
1775,0.40328025817871094,0.5237966775894165,0.91,0.79,0.0001
1776,0.4032801687717438,0.5237997174263,0.91,0.79,0.0001
1777,0.4032801687717438,0.5238035321235657,0.91,0.79,0.0001
1778,0.4032801687717438,0.5238057971000671,0.91,0.79,0.0001
1779,0.4032801389694214,0.5238085389137268,0.91,0.79,0.0001
1780,0.4032800793647766,0.5238113403320312,0.91,0.79,0.0001
1781,0.4032800793647766,0.5238183736801147,0.91,0.78,0.0001
