,train loss,val loss,train acc,val acc,lr
0,0.6921014189720154,0.6904551982879639,0.59,0.64,0.001
1,0.691642701625824,0.6867086887359619,0.61,0.62,0.001
2,0.6815493106842041,0.6829537749290466,0.71,0.65,0.001
3,0.6749652624130249,0.6792252063751221,0.77,0.66,0.001
4,0.6760373711585999,0.6751769781112671,0.66,0.66,0.001
5,0.6737706661224365,0.6707668900489807,0.68,0.66,0.001
6,0.6610586643218994,0.6656823754310608,0.72,0.66,0.001
7,0.6473917961120605,0.6597175598144531,0.74,0.67,0.001
8,0.6427822113037109,0.6523311138153076,0.77,0.66,0.001
9,0.6246050000190735,0.643385112285614,0.75,0.65,0.001
10,0.6242237687110901,0.633861243724823,0.71,0.61,0.001
11,0.606105625629425,0.6298980712890625,0.73,0.63,0.001
12,0.5820344686508179,0.6455497145652771,0.72,0.64,0.001
13,0.5965568423271179,0.6465303301811218,0.69,0.64,0.001
14,0.5889780521392822,0.6300941109657288,0.7,0.64,0.001
15,0.5718348026275635,0.6148483157157898,0.75,0.63,0.001
16,0.5701455473899841,0.6070030331611633,0.73,0.65,0.001
17,0.5524139404296875,0.6011293530464172,0.76,0.7,0.001
18,0.5489138960838318,0.5949845314025879,0.79,0.68,0.001
19,0.5457847118377686,0.5872955918312073,0.79,0.7,0.001
20,0.5484197735786438,0.5788807272911072,0.77,0.72,0.001
21,0.517398476600647,0.570161759853363,0.82,0.74,0.001
22,0.504143476486206,0.5650038123130798,0.8,0.74,0.001
23,0.5065778493881226,0.5705375075340271,0.77,0.72,0.001
24,0.5165190100669861,0.5687383413314819,0.76,0.7,0.001
25,0.5130618810653687,0.5503774881362915,0.77,0.74,0.001
26,0.5127029418945312,0.5457272529602051,0.8,0.75,0.001
27,0.5134484171867371,0.5689586400985718,0.8,0.69,0.001
28,0.4862392842769623,0.5807616710662842,0.82,0.68,0.001
29,0.49473491311073303,0.5497034192085266,0.83,0.74,0.001
30,0.4855530261993408,0.5406086444854736,0.81,0.75,0.001
31,0.48095399141311646,0.5521872043609619,0.83,0.75,0.001
32,0.48661160469055176,0.5656847357749939,0.81,0.72,0.001
33,0.48107776045799255,0.5594663619995117,0.84,0.74,0.001
34,0.48335331678390503,0.5488488674163818,0.82,0.76,0.001
35,0.4748575687408447,0.5441482067108154,0.83,0.74,0.001
36,0.4777902364730835,0.5455546975135803,0.82,0.74,0.001
37,0.47675007581710815,0.5478891134262085,0.84,0.77,0.001
38,0.46638965606689453,0.5554072260856628,0.85,0.74,0.001
39,0.4818119704723358,0.5499604940414429,0.83,0.77,0.001
40,0.48020899295806885,0.5446632504463196,0.84,0.77,0.001
41,0.4553712010383606,0.5422942042350769,0.87,0.77,0.001
42,0.471946120262146,0.5413922071456909,0.87,0.77,0.001
43,0.47449612617492676,0.5427831411361694,0.85,0.77,0.001
44,0.45701324939727783,0.546207070350647,0.87,0.75,0.001
45,0.4573933482170105,0.5413093566894531,0.86,0.78,0.001
46,0.4518245756626129,0.5387327075004578,0.88,0.78,0.001
47,0.45971038937568665,0.5380847454071045,0.86,0.79,0.001
48,0.4485557973384857,0.5410810708999634,0.87,0.77,0.001
49,0.44956719875335693,0.5468509197235107,0.88,0.76,0.001
50,0.45339974761009216,0.5374450087547302,0.89,0.79,0.001
51,0.4449301064014435,0.5349053144454956,0.88,0.77,0.001
52,0.43849241733551025,0.5379672050476074,0.87,0.78,0.001
53,0.4428436756134033,0.5442587733268738,0.86,0.77,0.001
54,0.45993342995643616,0.5380949974060059,0.86,0.78,0.001
55,0.43097123503685,0.5334801077842712,0.9,0.79,0.001
56,0.4263131022453308,0.5305289030075073,0.89,0.8,0.001
57,0.45111945271492004,0.5288954377174377,0.87,0.79,0.001
58,0.43609702587127686,0.5280416011810303,0.88,0.78,0.001
59,0.4399765431880951,0.526654064655304,0.89,0.78,0.001
60,0.43335941433906555,0.5242648720741272,0.88,0.79,0.001
61,0.4386780560016632,0.5221434831619263,0.89,0.8,0.001
62,0.44249191880226135,0.5258490443229675,0.88,0.79,0.001
63,0.42884501814842224,0.5324952602386475,0.89,0.76,0.001
64,0.4213584065437317,0.5288511514663696,0.91,0.77,0.001
65,0.44300469756126404,0.5193229913711548,0.88,0.79,0.001
66,0.45409151911735535,0.5205227136611938,0.86,0.78,0.001
67,0.4357041120529175,0.52750563621521,0.88,0.79,0.001
68,0.44104838371276855,0.528979480266571,0.87,0.78,0.001
69,0.42002418637275696,0.5251702666282654,0.91,0.78,0.001
70,0.4334186315536499,0.5232707262039185,0.87,0.79,0.001
71,0.4362749755382538,0.5304619669914246,0.89,0.77,0.001
72,0.4208163917064667,0.5381501913070679,0.91,0.75,0.001
73,0.4353698492050171,0.5390449166297913,0.87,0.75,0.001
74,0.4238181412220001,0.539211630821228,0.9,0.76,0.001
75,0.43050312995910645,0.5302045345306396,0.9,0.77,0.001
76,0.41611847281455994,0.5175665616989136,0.9,0.79,0.001
77,0.4356608986854553,0.5257650017738342,0.88,0.78,0.001
78,0.4303613007068634,0.524002194404602,0.88,0.78,0.001
79,0.44132500886917114,0.5236819386482239,0.86,0.79,0.001
80,0.42463967204093933,0.5312854647636414,0.9,0.78,0.001
81,0.43438056111335754,0.5398289561271667,0.88,0.75,0.001
82,0.42637699842453003,0.5403261184692383,0.88,0.75,0.001
83,0.430192768573761,0.5157946944236755,0.9,0.79,0.001
84,0.43535327911376953,0.508110523223877,0.88,0.79,0.001
85,0.44216692447662354,0.5220128297805786,0.88,0.78,0.001
86,0.42760032415390015,0.5294868350028992,0.88,0.77,0.001
87,0.42560505867004395,0.5280576944351196,0.89,0.77,0.001
88,0.4237712621688843,0.5314956903457642,0.89,0.78,0.001
89,0.42769336700439453,0.5303512811660767,0.9,0.78,0.001
90,0.4174638092517853,0.5252216458320618,0.9,0.79,0.001
91,0.4230542778968811,0.5229673981666565,0.9,0.78,0.001
92,0.42172566056251526,0.5212110280990601,0.89,0.78,0.001
93,0.4144977331161499,0.5220580101013184,0.91,0.79,0.001
94,0.4206967055797577,0.5180391073226929,0.9,0.78,0.001
95,0.42234212160110474,0.5130116939544678,0.89,0.8,0.001
96,0.41546666622161865,0.5107130408287048,0.9,0.79,0.001
97,0.4257422387599945,0.5147257447242737,0.88,0.79,0.001
98,0.42676764726638794,0.526496410369873,0.89,0.79,0.001
99,0.4232481122016907,0.524343729019165,0.9,0.78,0.001
100,0.41636478900909424,0.5160335302352905,0.89,0.8,0.001
101,0.42004385590553284,0.5130433440208435,0.9,0.79,0.001
102,0.42280063033103943,0.5185433626174927,0.9,0.79,0.001
103,0.42603591084480286,0.5280822515487671,0.88,0.78,0.001
104,0.4170326888561249,0.5296758413314819,0.9,0.78,0.001
105,0.42206698656082153,0.5160638093948364,0.89,0.78,0.001
106,0.4143374264240265,0.5072408318519592,0.89,0.79,0.001
107,0.425998330116272,0.5092753767967224,0.9,0.79,0.001
108,0.43755269050598145,0.5226073861122131,0.88,0.79,0.001
109,0.4273557960987091,0.54001384973526,0.88,0.75,0.001
110,0.4326147735118866,0.5199870467185974,0.88,0.8,0.001
111,0.4196586310863495,0.5163415670394897,0.9,0.79,0.001
112,0.43418964743614197,0.5125232934951782,0.86,0.78,0.001
113,0.42310914397239685,0.5427815914154053,0.89,0.74,0.001
114,0.426817387342453,0.5470693707466125,0.88,0.76,0.001
115,0.45740213990211487,0.5088983774185181,0.85,0.79,0.001
116,0.42160743474960327,0.5154443979263306,0.9,0.79,0.001
117,0.4696345627307892,0.5130832195281982,0.84,0.8,0.001
118,0.46609362959861755,0.5117921233177185,0.83,0.8,0.001
119,0.41954711079597473,0.5454999804496765,0.89,0.77,0.001
120,0.44195857644081116,0.5433154106140137,0.87,0.76,0.001
121,0.44365420937538147,0.5202553272247314,0.88,0.8,0.001
122,0.42120853066444397,0.5076345205307007,0.89,0.81,0.001
123,0.4244955778121948,0.5028767585754395,0.89,0.81,0.001
124,0.44398033618927,0.5034286975860596,0.87,0.81,0.001
125,0.4404289126396179,0.5103110671043396,0.87,0.79,0.001
126,0.42543715238571167,0.5097648501396179,0.87,0.79,0.001
127,0.40968501567840576,0.5122312307357788,0.91,0.8,0.001
128,0.42493802309036255,0.5143418908119202,0.88,0.79,0.001
129,0.42278042435646057,0.515902042388916,0.9,0.79,0.001
130,0.43173733353614807,0.5128563642501831,0.87,0.79,0.001
131,0.4141415059566498,0.5113934874534607,0.91,0.79,0.001
132,0.42869633436203003,0.5038803219795227,0.88,0.8,0.001
133,0.4139248728752136,0.502540647983551,0.91,0.79,0.001
134,0.4185221791267395,0.5242587924003601,0.9,0.78,0.001
135,0.4353662431240082,0.5992845296859741,0.86,0.71,0.001
136,0.45586562156677246,0.5161744356155396,0.85,0.79,0.001
137,0.4153502285480499,0.5191343426704407,0.91,0.79,0.001
138,0.4471238851547241,0.5443601608276367,0.86,0.75,0.001
139,0.46965885162353516,0.5370529294013977,0.82,0.75,0.001
140,0.471730500459671,0.5191938877105713,0.8,0.79,0.001
141,0.4092540442943573,0.5573570132255554,0.91,0.75,0.001
142,0.43596509099006653,0.6020914912223816,0.87,0.71,0.001
143,0.5070266723632812,0.6001384258270264,0.77,0.7,0.001
144,0.4707745313644409,0.5199006199836731,0.82,0.8,0.001
145,0.4444408416748047,0.5137590765953064,0.87,0.8,0.001
146,0.4749809205532074,0.5166506767272949,0.83,0.79,0.001
147,0.4689870774745941,0.50270015001297,0.85,0.81,0.001
148,0.4460498094558716,0.5054545998573303,0.86,0.81,0.001
149,0.4319744110107422,0.526615560054779,0.88,0.79,0.001
150,0.4341387450695038,0.545647144317627,0.88,0.74,0.001
151,0.4345497786998749,0.5558002591133118,0.88,0.75,0.001
152,0.43936023116111755,0.5615912079811096,0.88,0.74,0.001
153,0.4204070568084717,0.5459946990013123,0.9,0.75,0.001
154,0.4359700083732605,0.5245369672775269,0.86,0.77,0.001
155,0.4245361089706421,0.509376585483551,0.9,0.8,0.001
156,0.4375873804092407,0.537463366985321,0.87,0.76,0.001
157,0.4285362958908081,0.5486374497413635,0.89,0.76,0.001
158,0.43841591477394104,0.5634568333625793,0.87,0.74,0.001
159,0.43037956953048706,0.5632767677307129,0.88,0.74,0.001
160,0.42489102482795715,0.5384334325790405,0.89,0.76,0.001
161,0.4203457534313202,0.5004401206970215,0.9,0.81,0.001
162,0.4216252565383911,0.4914689362049103,0.89,0.82,0.001
163,0.4202152192592621,0.4901341199874878,0.9,0.82,0.001
164,0.41802188754081726,0.49304646253585815,0.9,0.81,0.001
165,0.4094247817993164,0.5085591673851013,0.9,0.8,0.001
166,0.4354090094566345,0.5127740502357483,0.87,0.78,0.001
167,0.41200271248817444,0.5151157975196838,0.91,0.78,0.001
168,0.41402924060821533,0.5106083154678345,0.9,0.79,0.001
169,0.4171870946884155,0.49845588207244873,0.9,0.81,0.001
170,0.4116784334182739,0.49683499336242676,0.9,0.82,0.001
171,0.4161355495452881,0.5059293508529663,0.9,0.81,0.001
172,0.4176448881626129,0.5059493780136108,0.89,0.81,0.001
173,0.42178797721862793,0.505486786365509,0.88,0.8,0.001
174,0.4140854775905609,0.5064207911491394,0.9,0.8,0.001
175,0.4116530120372772,0.5030211806297302,0.91,0.8,0.001
176,0.41765525937080383,0.5007506608963013,0.9,0.81,0.001
177,0.4101989269256592,0.5098235607147217,0.9,0.8,0.001
178,0.4096338748931885,0.5132607221603394,0.89,0.8,0.001
179,0.4170987606048584,0.5159615874290466,0.89,0.8,0.001
180,0.41939491033554077,0.5072442293167114,0.89,0.8,0.001
181,0.41750428080558777,0.5016546845436096,0.89,0.81,0.001
182,0.4053656756877899,0.5061843991279602,0.89,0.81,0.001
183,0.41712450981140137,0.50221186876297,0.9,0.81,0.001
184,0.42363348603248596,0.5078708529472351,0.89,0.81,0.001
185,0.4201177954673767,0.5018037557601929,0.89,0.8,0.001
186,0.4035572409629822,0.5052052140235901,0.92,0.8,0.001
187,0.4085116684436798,0.5079874992370605,0.9,0.8,0.001
188,0.4078652560710907,0.5133441686630249,0.91,0.79,0.001
189,0.4055960476398468,0.517509400844574,0.91,0.78,0.001
190,0.4155800938606262,0.5139907002449036,0.9,0.79,0.001
191,0.4171140193939209,0.5053033232688904,0.9,0.81,0.001
192,0.40850216150283813,0.504176914691925,0.91,0.81,0.001
193,0.4091693162918091,0.5057001113891602,0.91,0.81,0.001
194,0.40191352367401123,0.5034067630767822,0.92,0.8,0.001
195,0.410269170999527,0.5041046738624573,0.91,0.8,0.001
196,0.40651053190231323,0.5043871402740479,0.9,0.81,0.001
197,0.4099442958831787,0.5031147599220276,0.91,0.8,0.001
198,0.40451908111572266,0.5017319321632385,0.9,0.8,0.001
199,0.41316550970077515,0.5019570589065552,0.9,0.81,0.001
200,0.40400755405426025,0.5100089907646179,0.91,0.79,0.001
201,0.40861526131629944,0.5097965002059937,0.9,0.8,0.001
202,0.41204825043678284,0.5004115700721741,0.9,0.81,0.001
203,0.40608757734298706,0.500514566898346,0.91,0.81,0.001
204,0.4046849012374878,0.5010550022125244,0.9,0.81,0.001
205,0.41590699553489685,0.5078615546226501,0.9,0.8,0.001
206,0.4030427038669586,0.5147390961647034,0.91,0.79,0.001
207,0.417860746383667,0.5099040269851685,0.89,0.8,0.001
208,0.405053973197937,0.5044163465499878,0.91,0.8,0.001
209,0.4044996500015259,0.499798059463501,0.9,0.81,0.001
210,0.41498222947120667,0.5073917508125305,0.91,0.8,0.001
211,0.41033774614334106,0.5362669229507446,0.89,0.78,0.001
212,0.43058639764785767,0.5245290994644165,0.88,0.79,0.001
213,0.4172510802745819,0.5173853039741516,0.9,0.79,0.001
214,0.41300487518310547,0.49649956822395325,0.9,0.8,0.001
215,0.4124037027359009,0.49348393082618713,0.9,0.81,0.001
216,0.40853893756866455,0.4913163483142853,0.91,0.81,0.001
217,0.4032599627971649,0.4990757703781128,0.91,0.81,0.001
218,0.412789911031723,0.5085811018943787,0.91,0.8,0.001
219,0.41138726472854614,0.511523425579071,0.91,0.8,0.001
220,0.40828052163124084,0.5177660584449768,0.91,0.78,0.001
221,0.40350764989852905,0.5266430377960205,0.91,0.77,0.001
222,0.40923255681991577,0.5268983244895935,0.9,0.78,0.001
223,0.4103366732597351,0.5261033177375793,0.9,0.78,0.001
224,0.4360024631023407,0.5318143367767334,0.87,0.77,0.001
225,0.40902936458587646,0.5332170724868774,0.91,0.77,0.001
226,0.4093219041824341,0.5288856625556946,0.91,0.77,0.001
227,0.41379979252815247,0.5024144649505615,0.91,0.81,0.001
228,0.4075907766819,0.5292311310768127,0.9,0.77,0.001
229,0.41013091802597046,0.5346449017524719,0.9,0.76,0.001
230,0.40547576546669006,0.5402731895446777,0.91,0.76,0.001
231,0.40265682339668274,0.5437294244766235,0.92,0.76,0.001
232,0.4097537100315094,0.5421320199966431,0.9,0.76,0.001
233,0.4037463665008545,0.5416041016578674,0.91,0.76,0.001
234,0.40603241324424744,0.540370523929596,0.92,0.76,0.001
235,0.4170355200767517,0.5281380414962769,0.89,0.77,0.001
236,0.4068179428577423,0.5192588567733765,0.92,0.79,0.001
237,0.4065055549144745,0.497104674577713,0.92,0.81,0.001
238,0.41499000787734985,0.4944832921028137,0.9,0.82,0.001
239,0.40693730115890503,0.4939475655555725,0.9,0.82,0.001
240,0.414358913898468,0.495044469833374,0.89,0.81,0.001
241,0.40334439277648926,0.5043846368789673,0.91,0.8,0.001
242,0.4020688533782959,0.5177974104881287,0.91,0.79,0.001
243,0.4063377380371094,0.5319126844406128,0.9,0.77,0.001
244,0.4098109006881714,0.5280627012252808,0.91,0.77,0.001
245,0.40542441606521606,0.520651638507843,0.9,0.78,0.001
246,0.4000991880893707,0.5112103819847107,0.92,0.8,0.001
247,0.4107798635959625,0.5077786445617676,0.9,0.8,0.001
248,0.40745842456817627,0.5038135051727295,0.91,0.8,0.001
249,0.40826094150543213,0.49523675441741943,0.9,0.81,0.001
250,0.406986266374588,0.4869653284549713,0.91,0.82,0.001
251,0.40034908056259155,0.49417439103126526,0.92,0.81,0.001
252,0.4060306251049042,0.4952835440635681,0.92,0.81,0.001
253,0.4008512794971466,0.49665313959121704,0.91,0.81,0.001
254,0.40631625056266785,0.4893381595611572,0.91,0.82,0.001
255,0.40664809942245483,0.4892787039279938,0.91,0.82,0.001
256,0.4113970994949341,0.4880945086479187,0.9,0.82,0.001
257,0.4075825810432434,0.49444636702537537,0.9,0.81,0.001
258,0.4043988883495331,0.4831501245498657,0.91,0.82,0.001
259,0.40192273259162903,0.4832708239555359,0.9,0.82,0.001
260,0.40741971135139465,0.48557889461517334,0.91,0.82,0.001
261,0.4030911922454834,0.48266851902008057,0.92,0.83,0.001
262,0.3955138325691223,0.4806724190711975,0.91,0.83,0.001
263,0.3975902795791626,0.4803650975227356,0.91,0.83,0.001
264,0.3997581899166107,0.4821619391441345,0.92,0.82,0.001
265,0.40569478273391724,0.4851752519607544,0.9,0.82,0.001
266,0.3991822898387909,0.48662108182907104,0.92,0.82,0.001
267,0.4082133173942566,0.49270424246788025,0.91,0.82,0.001
268,0.4038386642932892,0.4924030601978302,0.92,0.82,0.001
269,0.4028990566730499,0.49510279297828674,0.92,0.81,0.001
270,0.40730059146881104,0.4929034411907196,0.91,0.82,0.001
271,0.40699300169944763,0.492374986410141,0.9,0.82,0.001
272,0.40332165360450745,0.49418434500694275,0.91,0.82,0.001
273,0.406331330537796,0.48807093501091003,0.91,0.81,0.001
274,0.40839073061943054,0.4936797618865967,0.91,0.81,0.001
275,0.4066919684410095,0.49427369236946106,0.91,0.81,0.001
276,0.40011492371559143,0.49948519468307495,0.92,0.81,0.001
277,0.4067683815956116,0.4952768087387085,0.91,0.82,0.001
278,0.3950628638267517,0.49252644181251526,0.93,0.82,0.001
279,0.4025776982307434,0.494125634431839,0.92,0.81,0.001
280,0.3962065577507019,0.493892103433609,0.92,0.81,0.001
281,0.4007846713066101,0.4918648898601532,0.92,0.81,0.001
282,0.40388599038124084,0.4852535128593445,0.92,0.82,0.001
283,0.40972262620925903,0.4888816177845001,0.91,0.81,0.001
284,0.4008290469646454,0.4906257390975952,0.92,0.82,0.001
285,0.39390453696250916,0.4920137822628021,0.92,0.82,0.001
286,0.3957350254058838,0.492451936006546,0.92,0.82,0.001
287,0.40716034173965454,0.4933764934539795,0.91,0.82,0.001
288,0.40497708320617676,0.4912852346897125,0.91,0.82,0.001
289,0.39830073714256287,0.49020400643348694,0.92,0.82,0.001
290,0.40170735120773315,0.4901828467845917,0.91,0.82,0.001
291,0.4038955569267273,0.49053263664245605,0.92,0.82,0.001
292,0.411311537027359,0.48103660345077515,0.9,0.83,0.001
293,0.40531566739082336,0.4829835891723633,0.92,0.83,0.001
294,0.4059616029262543,0.4871964156627655,0.9,0.82,0.001
295,0.3986516296863556,0.4914263188838959,0.91,0.82,0.001
296,0.4014071226119995,0.49087950587272644,0.91,0.82,0.001
297,0.4021635949611664,0.49109673500061035,0.92,0.82,0.001
298,0.40763962268829346,0.49107420444488525,0.91,0.81,0.001
299,0.40064841508865356,0.4901711642742157,0.91,0.81,0.001
300,0.39789849519729614,0.4848150312900543,0.91,0.82,0.001
301,0.40227916836738586,0.48283612728118896,0.91,0.82,0.001
302,0.4018757939338684,0.48138660192489624,0.91,0.83,0.001
303,0.4026874601840973,0.4806351959705353,0.91,0.83,0.001
304,0.4119660556316376,0.4823441803455353,0.91,0.83,0.001
305,0.3970852196216583,0.4904589056968689,0.91,0.82,0.001
306,0.3988177180290222,0.5032967925071716,0.91,0.8,0.001
307,0.4104630649089813,0.48480933904647827,0.9,0.82,0.001
308,0.4070475399494171,0.48911282420158386,0.9,0.82,0.001
309,0.4047878384590149,0.4887365698814392,0.91,0.82,0.001
310,0.4036460816860199,0.48870524764060974,0.91,0.82,0.001
311,0.4087490141391754,0.4818858802318573,0.91,0.83,0.001
312,0.4032338261604309,0.5034205913543701,0.92,0.8,0.001
313,0.4084920585155487,0.5135127305984497,0.91,0.81,0.001
314,0.4209917485713959,0.5050604343414307,0.91,0.81,0.001
315,0.409061461687088,0.4992533028125763,0.91,0.81,0.001
316,0.4110112488269806,0.4776400029659271,0.9,0.83,0.001
317,0.4144419729709625,0.4892474412918091,0.89,0.82,0.001
318,0.4129566252231598,0.4892263412475586,0.9,0.82,0.001
319,0.3986695408821106,0.48940715193748474,0.92,0.82,0.001
320,0.3997529149055481,0.4905681610107422,0.91,0.82,0.001
321,0.40343916416168213,0.4963245391845703,0.91,0.81,0.001
322,0.393691748380661,0.500693678855896,0.92,0.81,0.001
323,0.39922618865966797,0.5019301176071167,0.92,0.81,0.001
324,0.40109798312187195,0.499968945980072,0.91,0.81,0.001
325,0.40051525831222534,0.48399752378463745,0.92,0.83,0.001
326,0.3979271948337555,0.48290225863456726,0.92,0.83,0.001
327,0.40191590785980225,0.4832165539264679,0.91,0.82,0.001
328,0.3929440975189209,0.48344165086746216,0.92,0.83,0.001
329,0.4022939205169678,0.4837073087692261,0.92,0.83,0.001
330,0.4021126925945282,0.48408830165863037,0.92,0.82,0.001
331,0.4033648669719696,0.4962257146835327,0.91,0.81,0.001
332,0.4051809012889862,0.5066725015640259,0.92,0.8,0.001
333,0.3997301161289215,0.5067898631095886,0.92,0.8,0.001
334,0.40129947662353516,0.5063601136207581,0.92,0.8,0.001
335,0.39489880204200745,0.4953901171684265,0.92,0.81,0.001
336,0.3971541225910187,0.4930332601070404,0.92,0.81,0.001
337,0.39811572432518005,0.49003249406814575,0.92,0.81,0.001
338,0.400649756193161,0.4922124147415161,0.92,0.81,0.001
339,0.389209508895874,0.5034820437431335,0.92,0.81,0.001
340,0.404671311378479,0.4876788258552551,0.91,0.83,0.001
341,0.40208426117897034,0.483303427696228,0.91,0.82,0.001
342,0.39948222041130066,0.4930804371833801,0.92,0.81,0.001
343,0.3947807252407074,0.49336111545562744,0.92,0.81,0.001
344,0.4035912752151489,0.506405770778656,0.92,0.82,0.001
345,0.4054279029369354,0.5358521342277527,0.92,0.78,0.001
346,0.42688536643981934,0.494324266910553,0.85,0.81,0.001
347,0.39928901195526123,0.526513397693634,0.92,0.78,0.001
348,0.48242202401161194,0.5524247884750366,0.83,0.76,0.001
349,0.5143938660621643,0.5452179312705994,0.78,0.76,0.001
350,0.43193966150283813,0.8335610032081604,0.86,0.47,0.001
351,0.7291256785392761,0.7754418253898621,0.57,0.51,0.001
352,0.6562612652778625,0.5624516010284424,0.64,0.73,0.001
353,0.5005657076835632,0.5649325847625732,0.8,0.75,0.001
354,0.5094276070594788,0.5929468274116516,0.79,0.71,0.001
355,0.5188232064247131,0.5841792821884155,0.78,0.73,0.001
356,0.5912954211235046,0.5946758985519409,0.69,0.7,0.001
357,0.585959792137146,0.5902438759803772,0.69,0.69,0.001
358,0.5941365361213684,0.6042225360870361,0.68,0.67,0.001
359,0.5475372672080994,0.5945345163345337,0.75,0.71,0.001
360,0.526221513748169,0.5611768960952759,0.79,0.76,0.001
361,0.4843849837779999,0.5482478737831116,0.83,0.77,0.001
362,0.497012734413147,0.5793843269348145,0.8,0.73,0.001
363,0.4768217206001282,0.5962516665458679,0.84,0.72,0.001
364,0.5061007142066956,0.595533013343811,0.82,0.72,0.001
365,0.530365526676178,0.6023584604263306,0.77,0.71,0.001
366,0.5295953750610352,0.6009960770606995,0.78,0.68,0.001
367,0.47518473863601685,0.6030102372169495,0.85,0.69,0.001
368,0.5205196142196655,0.5825488567352295,0.78,0.72,0.001
369,0.49487990140914917,0.5551000237464905,0.82,0.76,0.001
370,0.48011067509651184,0.5693679451942444,0.81,0.74,0.001
371,0.5264564156532288,0.5704997181892395,0.78,0.74,0.001
372,0.49024268984794617,0.5641191601753235,0.81,0.74,0.001
373,0.4684654176235199,0.538160502910614,0.85,0.78,0.001
374,0.45701244473457336,0.5485716462135315,0.84,0.76,0.001
375,0.46621501445770264,0.549845814704895,0.86,0.74,0.001
376,0.4609147012233734,0.553512692451477,0.85,0.74,0.001
377,0.4546394646167755,0.550715982913971,0.85,0.75,0.001
378,0.4529154300689697,0.5504434108734131,0.86,0.76,0.001
379,0.444877028465271,0.5670614838600159,0.88,0.76,0.001
380,0.4764693081378937,0.556274950504303,0.84,0.76,0.001
381,0.4706486761569977,0.5457350015640259,0.84,0.76,0.001
382,0.4424625337123871,0.5375490784645081,0.86,0.78,0.001
383,0.4563160240650177,0.5378186702728271,0.86,0.77,0.001
384,0.4724055230617523,0.543138861656189,0.84,0.76,0.001
385,0.4872781038284302,0.5386965274810791,0.81,0.78,0.001
386,0.44314634799957275,0.5603383779525757,0.87,0.73,0.001
387,0.46103590726852417,0.5715915560722351,0.84,0.72,0.001
388,0.5056765675544739,0.569729208946228,0.8,0.73,0.001
389,0.4905981719493866,0.5442140698432922,0.83,0.76,0.001
390,0.47436514496803284,0.5326241254806519,0.82,0.79,0.001
391,0.46237868070602417,0.5377338528633118,0.85,0.78,0.001
392,0.4343492388725281,0.5262910723686218,0.89,0.78,0.001
393,0.4536897540092468,0.5277800559997559,0.86,0.78,0.001
394,0.43456679582595825,0.532057523727417,0.9,0.78,0.001
395,0.4509900212287903,0.5350671410560608,0.85,0.77,0.001
396,0.4499000310897827,0.5348500609397888,0.86,0.77,0.001
397,0.4256509840488434,0.5403538942337036,0.9,0.78,0.001
398,0.4283558130264282,0.5404636859893799,0.89,0.78,0.001
399,0.4498935341835022,0.5408813953399658,0.86,0.78,0.001
400,0.4361790716648102,0.5432572960853577,0.87,0.77,0.001
401,0.4303380846977234,0.5423974990844727,0.88,0.77,0.001
402,0.4112512171268463,0.5387353301048279,0.92,0.78,0.001
403,0.42917609214782715,0.54238361120224,0.89,0.77,0.001
404,0.42964744567871094,0.5452826023101807,0.88,0.76,0.001
405,0.43620753288269043,0.5452286005020142,0.87,0.77,0.001
406,0.4348067045211792,0.5440362095832825,0.87,0.77,0.001
407,0.443220853805542,0.542208731174469,0.86,0.77,0.001
408,0.42993414402008057,0.5380791425704956,0.87,0.78,0.001
409,0.4307381808757782,0.5330258011817932,0.89,0.78,0.001
410,0.4332805275917053,0.5300047397613525,0.89,0.79,0.001
411,0.4438769221305847,0.5531028509140015,0.87,0.75,0.001
412,0.43990105390548706,0.5339222550392151,0.87,0.77,0.001
413,0.44849833846092224,0.5324032306671143,0.86,0.77,0.001
414,0.4510917663574219,0.5308628678321838,0.85,0.78,0.001
415,0.4327484369277954,0.5395842790603638,0.89,0.77,0.001
416,0.43238309025764465,0.5202979445457458,0.88,0.79,0.001
417,0.44657593965530396,0.5210148096084595,0.86,0.8,0.001
418,0.4548303186893463,0.5184543132781982,0.85,0.79,0.001
419,0.442870169878006,0.5330896377563477,0.86,0.78,0.001
420,0.44319722056388855,0.5278451442718506,0.87,0.8,0.001
421,0.4350569248199463,0.5322887301445007,0.89,0.78,0.001
422,0.4517683684825897,0.569827139377594,0.86,0.74,0.001
423,0.46409279108047485,0.5712219476699829,0.86,0.74,0.001
424,0.47379061579704285,0.5442259311676025,0.84,0.76,0.001
425,0.44627124071121216,0.5375738739967346,0.86,0.78,0.001
426,0.4345863461494446,0.5292036533355713,0.88,0.79,0.001
427,0.4618239104747772,0.5822871923446655,0.84,0.71,0.001
428,0.47991812229156494,0.5834346413612366,0.83,0.71,0.001
429,0.47828438878059387,0.5307897329330444,0.83,0.78,0.001
430,0.4436095356941223,0.5677857398986816,0.86,0.74,0.001
431,0.4651181697845459,0.6260854601860046,0.84,0.68,0.001
432,0.5576258897781372,0.599604070186615,0.74,0.71,0.001
433,0.5402156710624695,0.5541110038757324,0.76,0.75,0.001
434,0.44903451204299927,0.5410570502281189,0.87,0.75,0.001
435,0.4323315918445587,0.5462239384651184,0.88,0.76,0.001
436,0.44279831647872925,0.5445055365562439,0.86,0.76,0.001
437,0.45423340797424316,0.5204434394836426,0.86,0.8,0.001
438,0.4630603492259979,0.5393108129501343,0.84,0.76,0.001
439,0.49330252408981323,0.5449246168136597,0.81,0.76,0.001
440,0.47226935625076294,0.5349636673927307,0.84,0.77,0.0007937005259840996
441,0.49585992097854614,0.5169090032577515,0.81,0.79,0.0007937005259840996
442,0.4644165337085724,0.506242036819458,0.85,0.81,0.0007937005259840996
443,0.4512084126472473,0.5294675827026367,0.86,0.78,0.0007937005259840996
444,0.4473906457424164,0.5554807186126709,0.86,0.75,0.0007937005259840996
445,0.4151138365268707,0.5571935176849365,0.89,0.75,0.0007937005259840996
446,0.4353581964969635,0.5822521448135376,0.88,0.72,0.0007937005259840996
447,0.42588698863983154,0.587425947189331,0.89,0.72,0.0007937005259840996
448,0.44522929191589355,0.5879059433937073,0.88,0.72,0.0007937005259840996
449,0.450906902551651,0.5897206664085388,0.87,0.71,0.0007937005259840996
450,0.42455655336380005,0.5893840789794922,0.9,0.72,0.0007937005259840996
451,0.3946003019809723,0.5521212816238403,0.91,0.76,0.0007937005259840996
452,0.39255377650260925,0.5383766293525696,0.93,0.78,0.0007937005259840996
453,0.4043349027633667,0.5358348488807678,0.91,0.78,0.0007937005259840996
454,0.41411736607551575,0.5328349471092224,0.9,0.78,0.0007937005259840996
455,0.4107015132904053,0.5549609065055847,0.9,0.74,0.0007937005259840996
456,0.4109720289707184,0.5777841210365295,0.89,0.74,0.0007937005259840996
457,0.4064653813838959,0.5855218768119812,0.9,0.73,0.0007937005259840996
458,0.4187674820423126,0.5779706835746765,0.87,0.74,0.0007937005259840996
459,0.4141351282596588,0.5763225555419922,0.91,0.73,0.0007937005259840996
460,0.42037728428840637,0.5764821767807007,0.9,0.73,0.0007937005259840996
461,0.41783982515335083,0.5681858658790588,0.89,0.73,0.0007937005259840996
462,0.4050171673297882,0.5685576796531677,0.92,0.73,0.0007937005259840996
463,0.4243435263633728,0.5675798058509827,0.89,0.73,0.0007937005259840996
464,0.4235103726387024,0.5441282391548157,0.89,0.75,0.0007937005259840996
465,0.409793496131897,0.5281696915626526,0.91,0.78,0.0007937005259840996
466,0.41674140095710754,0.5231987237930298,0.89,0.77,0.0007937005259840996
467,0.4631195068359375,0.5182205438613892,0.84,0.79,0.0007937005259840996
468,0.41910091042518616,0.5147364735603333,0.9,0.79,0.0007937005259840996
469,0.41812416911125183,0.5220917463302612,0.9,0.79,0.0007937005259840996
470,0.42678314447402954,0.533862829208374,0.89,0.78,0.0007937005259840996
471,0.44892051815986633,0.5213784575462341,0.87,0.79,0.0007937005259840996
472,0.4286234974861145,0.5219798684120178,0.89,0.79,0.0007937005259840996
473,0.42010918259620667,0.5267188549041748,0.9,0.78,0.0007937005259840996
474,0.42421817779541016,0.522395670413971,0.89,0.79,0.0007937005259840996
475,0.4184032380580902,0.5358102917671204,0.9,0.77,0.0007937005259840996
476,0.43731066584587097,0.540756344795227,0.87,0.77,0.0007937005259840996
477,0.43355026841163635,0.5271596908569336,0.88,0.79,0.0007937005259840996
478,0.43557804822921753,0.5245517492294312,0.89,0.79,0.0007937005259840996
479,0.42217543721199036,0.5330548286437988,0.89,0.78,0.0007937005259840996
480,0.4202836751937866,0.5299667119979858,0.9,0.78,0.0007937005259840996
481,0.41537848114967346,0.5368801355361938,0.89,0.77,0.0007937005259840996
482,0.4283142387866974,0.5463573932647705,0.88,0.76,0.0007937005259840996
483,0.41259899735450745,0.5580470561981201,0.9,0.75,0.0007937005259840996
484,0.4312053918838501,0.5583922266960144,0.88,0.75,0.0007937005259840996
485,0.42050686478614807,0.5486947298049927,0.89,0.76,0.0007937005259840996
486,0.4202772378921509,0.5535937547683716,0.9,0.74,0.0007937005259840996
487,0.4079136550426483,0.5511399507522583,0.91,0.75,0.0007937005259840996
488,0.4031411111354828,0.5487508773803711,0.92,0.75,0.0007937005259840996
489,0.40883079171180725,0.5318607091903687,0.9,0.78,0.0007937005259840996
490,0.41801026463508606,0.5273950099945068,0.9,0.78,0.0007937005259840996
491,0.4395342171192169,0.5252470970153809,0.87,0.79,0.0007937005259840996
492,0.4549928605556488,0.5235340595245361,0.85,0.79,0.0007937005259840996
493,0.4448827803134918,0.5139750838279724,0.88,0.8,0.0007937005259840996
494,0.4248475730419159,0.5008513331413269,0.89,0.82,0.0007937005259840996
495,0.42769771814346313,0.5034106373786926,0.88,0.82,0.0007937005259840996
496,0.4243956506252289,0.5183656215667725,0.88,0.8,0.0007937005259840996
497,0.42876094579696655,0.5271018147468567,0.88,0.77,0.0007937005259840996
498,0.4204661548137665,0.5374228954315186,0.89,0.77,0.0007937005259840996
499,0.4510962665081024,0.5228515267372131,0.85,0.78,0.0007937005259840996
500,0.4396288990974426,0.5226766467094421,0.87,0.77,0.0007937005259840996
501,0.45980438590049744,0.5386049151420593,0.85,0.76,0.0007937005259840996
502,0.45415037870407104,0.5348769426345825,0.85,0.78,0.0007937005259840996
503,0.4528183341026306,0.5250297784805298,0.85,0.78,0.0007937005259840996
504,0.485234797000885,0.540834903717041,0.81,0.75,0.0007937005259840996
505,0.45712292194366455,0.5461702346801758,0.86,0.77,0.0007937005259840996
506,0.45642197132110596,0.5536713600158691,0.85,0.76,0.0007937005259840996
507,0.4798814654350281,0.5628649592399597,0.84,0.75,0.0007937005259840996
508,0.49623844027519226,0.5632098317146301,0.81,0.75,0.0007937005259840996
509,0.48148345947265625,0.5658292174339294,0.81,0.75,0.0007937005259840996
510,0.4539426565170288,0.5472974181175232,0.85,0.76,0.0007937005259840996
511,0.44878482818603516,0.5369728207588196,0.87,0.77,0.0007937005259840996
512,0.45352429151535034,0.5327013731002808,0.86,0.77,0.0007937005259840996
513,0.466413676738739,0.5289576649665833,0.84,0.77,0.0007937005259840996
514,0.4546774923801422,0.5295805931091309,0.85,0.77,0.0007937005259840996
515,0.4448188841342926,0.5071015954017639,0.86,0.81,0.0007937005259840996
516,0.44376957416534424,0.505230724811554,0.86,0.81,0.0007937005259840996
517,0.4287062883377075,0.50766921043396,0.87,0.81,0.0007937005259840996
518,0.4466564953327179,0.5188649892807007,0.87,0.78,0.0007937005259840996
519,0.43306443095207214,0.524284303188324,0.87,0.78,0.0007937005259840996
520,0.4391483664512634,0.5290442109107971,0.87,0.79,0.0007937005259840996
521,0.43813785910606384,0.5338906645774841,0.86,0.77,0.0007937005259840996
522,0.4462739825248718,0.5351287722587585,0.87,0.77,0.0007937005259840996
523,0.431930810213089,0.5354613661766052,0.88,0.77,0.0007937005259840996
524,0.4359736740589142,0.5442488193511963,0.87,0.75,0.0007937005259840996
525,0.4316347539424896,0.5526179075241089,0.89,0.74,0.0007937005259840996
526,0.43352359533309937,0.5532200932502747,0.88,0.75,0.0007937005259840996
527,0.4322955012321472,0.553382158279419,0.89,0.75,0.0007937005259840996
528,0.4347515404224396,0.5540508031845093,0.89,0.75,0.0007937005259840996
529,0.43086326122283936,0.5539470911026001,0.88,0.75,0.0007937005259840996
530,0.4284178912639618,0.5471595525741577,0.88,0.74,0.0007937005259840996
531,0.4312921464443207,0.5298726558685303,0.89,0.78,0.0007937005259840996
532,0.4307315945625305,0.5175997018814087,0.88,0.8,0.0007937005259840996
533,0.4252319037914276,0.5156001448631287,0.89,0.8,0.0007937005259840996
534,0.4456576108932495,0.5157719254493713,0.86,0.8,0.0007937005259840996
535,0.43181049823760986,0.5195580720901489,0.88,0.8,0.0007937005259840996
536,0.4323137402534485,0.5252892971038818,0.88,0.8,0.0007937005259840996
537,0.43173331022262573,0.5318819880485535,0.88,0.77,0.0007937005259840996
538,0.43157288432121277,0.5343401432037354,0.88,0.77,0.0007937005259840996
539,0.4328470230102539,0.5348448157310486,0.88,0.77,0.0007937005259840996
540,0.4266549348831177,0.5347980260848999,0.89,0.78,0.0007937005259840996
541,0.4314139187335968,0.5355679392814636,0.88,0.77,0.0006299605249474364
542,0.4238971471786499,0.5369389653205872,0.88,0.77,0.0006299605249474364
543,0.43094193935394287,0.5379823446273804,0.88,0.77,0.0006299605249474364
544,0.4235762059688568,0.5387358665466309,0.89,0.77,0.0006299605249474364
545,0.4238862991333008,0.5381700992584229,0.9,0.77,0.0006299605249474364
546,0.4266047179698944,0.536930501461029,0.89,0.77,0.0006299605249474364
547,0.43288731575012207,0.5361942648887634,0.88,0.77,0.0006299605249474364
548,0.4204789400100708,0.5342554450035095,0.9,0.78,0.0006299605249474364
549,0.43016043305397034,0.5312142372131348,0.87,0.79,0.0006299605249474364
550,0.4299021065235138,0.5288382768630981,0.88,0.79,0.0006299605249474364
551,0.4258083403110504,0.5277197360992432,0.89,0.79,0.0006299605249474364
552,0.42677634954452515,0.5264779925346375,0.89,0.79,0.0006299605249474364
553,0.41812455654144287,0.5266115665435791,0.89,0.79,0.0006299605249474364
554,0.4311644434928894,0.5270789265632629,0.88,0.79,0.0006299605249474364
555,0.42258912324905396,0.5296306610107422,0.88,0.78,0.0006299605249474364
556,0.43695440888404846,0.5309678316116333,0.87,0.78,0.0006299605249474364
557,0.42996758222579956,0.5317587852478027,0.88,0.77,0.0006299605249474364
558,0.4153917729854584,0.536888599395752,0.9,0.76,0.0006299605249474364
559,0.4099636375904083,0.5423448085784912,0.9,0.76,0.0006299605249474364
560,0.4243316948413849,0.5425037145614624,0.9,0.76,0.0006299605249474364
561,0.41360074281692505,0.541598916053772,0.9,0.76,0.0006299605249474364
562,0.41921520233154297,0.5357087850570679,0.88,0.76,0.0006299605249474364
563,0.40775054693222046,0.5288839936256409,0.91,0.79,0.0006299605249474364
564,0.42493900656700134,0.5282374620437622,0.88,0.79,0.0006299605249474364
565,0.41443824768066406,0.5269616842269897,0.9,0.79,0.0006299605249474364
566,0.4007595479488373,0.5262667536735535,0.92,0.79,0.0006299605249474364
567,0.40682822465896606,0.5249335765838623,0.91,0.79,0.0006299605249474364
568,0.39750081300735474,0.5222635269165039,0.92,0.79,0.0006299605249474364
569,0.4190014600753784,0.5134103894233704,0.9,0.8,0.0006299605249474364
570,0.41510826349258423,0.5115030407905579,0.89,0.8,0.0006299605249474364
571,0.41274550557136536,0.510591983795166,0.9,0.8,0.0006299605249474364
572,0.40362435579299927,0.5111990571022034,0.91,0.8,0.0006299605249474364
573,0.41309040784835815,0.5137345790863037,0.9,0.8,0.0006299605249474364
574,0.3940061628818512,0.5157008171081543,0.92,0.8,0.0006299605249474364
575,0.3924315273761749,0.5165584087371826,0.93,0.8,0.0006299605249474364
576,0.39025506377220154,0.511481523513794,0.92,0.8,0.0006299605249474364
577,0.389413446187973,0.5102470517158508,0.93,0.81,0.0006299605249474364
578,0.3978337347507477,0.5097425580024719,0.91,0.8,0.0006299605249474364
579,0.3956564664840698,0.5082271695137024,0.92,0.8,0.0006299605249474364
580,0.4083440899848938,0.5082830190658569,0.9,0.81,0.0006299605249474364
581,0.397520512342453,0.5200962424278259,0.92,0.8,0.0006299605249474364
582,0.39344322681427,0.5246396064758301,0.93,0.78,0.0006299605249474364
583,0.4025682806968689,0.5258401036262512,0.91,0.78,0.0006299605249474364
584,0.4035618305206299,0.5186989307403564,0.92,0.8,0.0006299605249474364
585,0.39636296033859253,0.5059177279472351,0.92,0.81,0.0006299605249474364
586,0.3813171088695526,0.5047069191932678,0.93,0.81,0.0006299605249474364
587,0.39905455708503723,0.4970529079437256,0.91,0.82,0.0006299605249474364
588,0.39558929204940796,0.5042887330055237,0.92,0.81,0.0006299605249474364
589,0.38382747769355774,0.5207995772361755,0.93,0.8,0.0006299605249474364
590,0.38960397243499756,0.5283980369567871,0.93,0.79,0.0006299605249474364
591,0.39215192198753357,0.5274874567985535,0.91,0.79,0.0006299605249474364
592,0.3858738839626312,0.5071862936019897,0.92,0.81,0.0006299605249474364
593,0.38397321105003357,0.5010612607002258,0.93,0.81,0.0006299605249474364
594,0.39008191227912903,0.5061882138252258,0.92,0.8,0.0006299605249474364
595,0.38887736201286316,0.5081881880760193,0.94,0.8,0.0006299605249474364
596,0.3947337865829468,0.4994719624519348,0.92,0.81,0.0006299605249474364
597,0.38256534934043884,0.5002029538154602,0.94,0.81,0.0006299605249474364
598,0.3911823034286499,0.501698911190033,0.92,0.81,0.0006299605249474364
599,0.38059112429618835,0.5046625733375549,0.94,0.81,0.0006299605249474364
600,0.3856349587440491,0.5080564022064209,0.92,0.8,0.0006299605249474364
601,0.38714680075645447,0.5069068670272827,0.93,0.8,0.0006299605249474364
602,0.39665934443473816,0.5026794672012329,0.92,0.81,0.0006299605249474364
603,0.38622716069221497,0.49931666254997253,0.93,0.81,0.0006299605249474364
604,0.38746339082717896,0.4972670376300812,0.92,0.81,0.0006299605249474364
605,0.3831999599933624,0.5054007172584534,0.93,0.8,0.0006299605249474364
606,0.37944069504737854,0.5028383135795593,0.94,0.8,0.0006299605249474364
607,0.37606582045555115,0.49290791153907776,0.94,0.82,0.0006299605249474364
608,0.3887141942977905,0.4931481182575226,0.93,0.81,0.0006299605249474364
609,0.3820873200893402,0.49462926387786865,0.94,0.81,0.0006299605249474364
610,0.38085776567459106,0.5017753839492798,0.94,0.8,0.0006299605249474364
611,0.38495925068855286,0.5047608613967896,0.93,0.8,0.0006299605249474364
612,0.37263670563697815,0.5015790462493896,0.94,0.8,0.0006299605249474364
613,0.3824763000011444,0.49805915355682373,0.93,0.81,0.0006299605249474364
614,0.38084709644317627,0.4987662136554718,0.93,0.8,0.0006299605249474364
615,0.3853303790092468,0.4989294707775116,0.93,0.81,0.0006299605249474364
616,0.39032018184661865,0.4984069764614105,0.92,0.81,0.0006299605249474364
617,0.3751245141029358,0.4975239634513855,0.94,0.81,0.0006299605249474364
618,0.3742069602012634,0.49620917439460754,0.94,0.81,0.0006299605249474364
619,0.3739576041698456,0.4952593147754669,0.94,0.81,0.0006299605249474364
620,0.3790148198604584,0.4940716624259949,0.94,0.82,0.0006299605249474364
621,0.3835671544075012,0.49265167117118835,0.93,0.82,0.0006299605249474364
622,0.3775937557220459,0.4903910756111145,0.95,0.82,0.0006299605249474364
623,0.37931618094444275,0.4876541793346405,0.94,0.82,0.0006299605249474364
624,0.3775363266468048,0.48646095395088196,0.94,0.82,0.0006299605249474364
625,0.372397780418396,0.48529937863349915,0.94,0.82,0.0006299605249474364
626,0.37266263365745544,0.484605610370636,0.94,0.82,0.0006299605249474364
627,0.3775106370449066,0.48352667689323425,0.94,0.83,0.0006299605249474364
628,0.3749864995479584,0.48271316289901733,0.94,0.83,0.0006299605249474364
629,0.37473174929618835,0.48178014159202576,0.94,0.83,0.0006299605249474364
630,0.3730306923389435,0.4807802140712738,0.95,0.83,0.0006299605249474364
631,0.38424038887023926,0.4788411259651184,0.93,0.84,0.0006299605249474364
632,0.3795281946659088,0.4770105481147766,0.94,0.85,0.0006299605249474364
633,0.37026599049568176,0.4758564829826355,0.95,0.85,0.0006299605249474364
634,0.37414756417274475,0.4753020405769348,0.94,0.85,0.0006299605249474364
635,0.3727886974811554,0.47473686933517456,0.95,0.85,0.0006299605249474364
636,0.37369304895401,0.47476670145988464,0.95,0.85,0.0006299605249474364
637,0.3752061426639557,0.4747796952724457,0.94,0.85,0.0006299605249474364
638,0.3714582920074463,0.4751023054122925,0.95,0.85,0.0006299605249474364
639,0.37068119645118713,0.47555339336395264,0.95,0.85,0.0006299605249474364
640,0.38151633739471436,0.4755575954914093,0.93,0.85,0.0006299605249474364
641,0.37393391132354736,0.4797867238521576,0.94,0.83,0.0006299605249474364
642,0.37751731276512146,0.4834992289543152,0.94,0.83,0.0006299605249474364
643,0.36933112144470215,0.48324763774871826,0.95,0.83,0.0006299605249474364
644,0.3753795325756073,0.48334410786628723,0.95,0.83,0.0006299605249474364
645,0.38271400332450867,0.47234290838241577,0.93,0.85,0.0006299605249474364
646,0.3691606819629669,0.4718554615974426,0.95,0.85,0.0006299605249474364
647,0.37164756655693054,0.47217094898223877,0.94,0.85,0.0006299605249474364
648,0.3700495958328247,0.47380009293556213,0.95,0.85,0.0006299605249474364
649,0.3679184317588806,0.4764667749404907,0.95,0.84,0.0006299605249474364
650,0.3719981908798218,0.47674697637557983,0.94,0.83,0.0006299605249474364
651,0.3763993978500366,0.4761492908000946,0.94,0.84,0.0006299605249474364
652,0.3691715896129608,0.4749606251716614,0.95,0.84,0.0006299605249474364
653,0.378399133682251,0.4743114411830902,0.94,0.84,0.0006299605249474364
654,0.3710329830646515,0.4755305051803589,0.95,0.84,0.0006299605249474364
655,0.36581799387931824,0.48054051399230957,0.95,0.83,0.0006299605249474364
656,0.369220495223999,0.4864717423915863,0.95,0.82,0.0006299605249474364
657,0.3678895831108093,0.49322274327278137,0.95,0.81,0.0006299605249474364
658,0.37298089265823364,0.4712892770767212,0.94,0.85,0.0006299605249474364
659,0.36629757285118103,0.4684661626815796,0.95,0.85,0.0006299605249474364
660,0.36775946617126465,0.47736048698425293,0.95,0.84,0.0006299605249474364
661,0.36820149421691895,0.4773167371749878,0.95,0.84,0.0006299605249474364
662,0.3852140009403229,0.47506383061408997,0.94,0.84,0.0006299605249474364
663,0.37191081047058105,0.469883531332016,0.94,0.84,0.0006299605249474364
664,0.36988896131515503,0.4813610315322876,0.95,0.83,0.0006299605249474364
665,0.3709324300289154,0.47584518790245056,0.95,0.84,0.0006299605249474364
666,0.37337619066238403,0.47412487864494324,0.95,0.84,0.0006299605249474364
667,0.37489962577819824,0.47099220752716064,0.94,0.84,0.0006299605249474364
668,0.3695569932460785,0.4683288335800171,0.95,0.85,0.0006299605249474364
669,0.3719046413898468,0.4758032262325287,0.94,0.84,0.0006299605249474364
670,0.36853036284446716,0.4765565097332001,0.95,0.84,0.0006299605249474364
671,0.3725052773952484,0.47682350873947144,0.94,0.84,0.0006299605249474364
672,0.375931054353714,0.47680169343948364,0.94,0.84,0.0006299605249474364
673,0.3666985034942627,0.47703003883361816,0.95,0.84,0.0006299605249474364
674,0.3671853244304657,0.47732609510421753,0.95,0.84,0.0006299605249474364
675,0.368180513381958,0.4680807888507843,0.95,0.85,0.0006299605249474364
676,0.37522661685943604,0.46713554859161377,0.93,0.85,0.0006299605249474364
677,0.36413314938545227,0.4679875075817108,0.95,0.85,0.0006299605249474364
678,0.3693031668663025,0.4696553349494934,0.95,0.84,0.0006299605249474364
679,0.37167346477508545,0.47149887681007385,0.94,0.84,0.0006299605249474364
680,0.3655349612236023,0.4735182523727417,0.95,0.84,0.0006299605249474364
681,0.3652840852737427,0.4760194420814514,0.95,0.84,0.0006299605249474364
682,0.3671495318412781,0.47831809520721436,0.95,0.83,0.0006299605249474364
683,0.37056976556777954,0.4800705015659332,0.95,0.83,0.0006299605249474364
684,0.36782848834991455,0.48145580291748047,0.95,0.83,0.0006299605249474364
685,0.3666061758995056,0.4821050763130188,0.95,0.83,0.0006299605249474364
686,0.37031781673431396,0.48272836208343506,0.95,0.83,0.0006299605249474364
687,0.3663558065891266,0.48352310061454773,0.95,0.83,0.0006299605249474364
688,0.3711608946323395,0.48405978083610535,0.94,0.83,0.0006299605249474364
689,0.36619603633880615,0.48441776633262634,0.95,0.83,0.0006299605249474364
690,0.366371750831604,0.48436886072158813,0.95,0.83,0.0006299605249474364
691,0.3669644296169281,0.48389479517936707,0.95,0.83,0.0006299605249474364
692,0.3686811327934265,0.4832468330860138,0.95,0.83,0.0006299605249474364
693,0.364571213722229,0.48275697231292725,0.95,0.83,0.0006299605249474364
694,0.36748236417770386,0.4827672839164734,0.95,0.83,0.0006299605249474364
695,0.36503562331199646,0.4828812777996063,0.95,0.83,0.0006299605249474364
696,0.36484822630882263,0.48309266567230225,0.95,0.83,0.0006299605249474364
697,0.3657391369342804,0.48325634002685547,0.95,0.83,0.0006299605249474364
698,0.3668809235095978,0.4833694398403168,0.95,0.83,0.0006299605249474364
699,0.3652159571647644,0.4835316836833954,0.95,0.83,0.0006299605249474364
700,0.3672301769256592,0.48350605368614197,0.95,0.83,0.0006299605249474364
701,0.36503830552101135,0.4832993447780609,0.95,0.83,0.0006299605249474364
702,0.3648684322834015,0.4831291139125824,0.95,0.83,0.0006299605249474364
703,0.36823856830596924,0.4831651449203491,0.95,0.83,0.0006299605249474364
704,0.36625614762306213,0.48316147923469543,0.95,0.83,0.0006299605249474364
705,0.3661263585090637,0.4829288125038147,0.95,0.83,0.0006299605249474364
706,0.3642512857913971,0.48271968960762024,0.95,0.83,0.0006299605249474364
707,0.36435168981552124,0.48252570629119873,0.95,0.83,0.0006299605249474364
708,0.3658543825149536,0.4823029637336731,0.95,0.83,0.0006299605249474364
709,0.3653351664543152,0.48203518986701965,0.95,0.83,0.0006299605249474364
710,0.36478129029273987,0.4816440939903259,0.95,0.83,0.0006299605249474364
711,0.3690047562122345,0.48130643367767334,0.95,0.83,0.0006299605249474364
712,0.3641313910484314,0.48083606362342834,0.95,0.83,0.0006299605249474364
713,0.3654528558254242,0.48056626319885254,0.95,0.83,0.0006299605249474364
714,0.3666679859161377,0.48036396503448486,0.95,0.83,0.0006299605249474364
715,0.3642723858356476,0.48042118549346924,0.95,0.83,0.0006299605249474364
716,0.3641680181026459,0.48065489530563354,0.95,0.84,0.0006299605249474364
717,0.36666905879974365,0.48099812865257263,0.95,0.84,0.0006299605249474364
718,0.3676988184452057,0.4812471866607666,0.95,0.84,0.0006299605249474364
719,0.3653987646102905,0.48150956630706787,0.95,0.84,0.0006299605249474364
720,0.36505141854286194,0.48133933544158936,0.95,0.84,0.0006299605249474364
721,0.3657057285308838,0.4809846878051758,0.95,0.84,0.0006299605249474364
722,0.36575081944465637,0.48030325770378113,0.95,0.84,0.0006299605249474364
723,0.364924818277359,0.47976917028427124,0.95,0.84,0.0006299605249474364
724,0.3650674521923065,0.47949913144111633,0.95,0.84,0.0006299605249474364
725,0.3642864227294922,0.47924602031707764,0.95,0.84,0.0006299605249474364
726,0.3643648028373718,0.4788280129432678,0.95,0.84,0.0006299605249474364
727,0.3641698956489563,0.4783642590045929,0.95,0.84,0.0006299605249474364
728,0.36525237560272217,0.4780651032924652,0.95,0.84,0.0006299605249474364
729,0.36456164717674255,0.4777525067329407,0.95,0.84,0.0006299605249474364
730,0.3705497980117798,0.47730326652526855,0.94,0.83,0.0006299605249474364
731,0.36570557951927185,0.47694623470306396,0.95,0.83,0.0006299605249474364
732,0.3642098903656006,0.4766944944858551,0.95,0.83,0.0006299605249474364
733,0.3663506805896759,0.4785824716091156,0.95,0.83,0.0006299605249474364
734,0.36812400817871094,0.47903671860694885,0.95,0.84,0.0006299605249474364
735,0.3647831678390503,0.47881320118904114,0.95,0.84,0.0006299605249474364
736,0.3654886484146118,0.4786878824234009,0.95,0.84,0.0006299605249474364
737,0.3679214417934418,0.4784707725048065,0.95,0.84,0.0006299605249474364
738,0.36599665880203247,0.478173166513443,0.95,0.84,0.0006299605249474364
739,0.36569392681121826,0.47805240750312805,0.95,0.84,0.0006299605249474364
740,0.3699547052383423,0.4778541624546051,0.95,0.84,0.0006299605249474364
741,0.36667537689208984,0.4775649309158325,0.95,0.84,0.0006299605249474364
742,0.3649705946445465,0.47753289341926575,0.95,0.84,0.0006299605249474364
743,0.3683949410915375,0.47838568687438965,0.95,0.83,0.0006299605249474364
744,0.3648476302623749,0.4792574346065521,0.95,0.83,0.0006299605249474364
745,0.36440372467041016,0.4800451397895813,0.95,0.83,0.0006299605249474364
746,0.3640795946121216,0.48078781366348267,0.95,0.83,0.0006299605249474364
747,0.3671865463256836,0.48129260540008545,0.95,0.83,0.0006299605249474364
748,0.3645175099372864,0.4816785156726837,0.95,0.83,0.0006299605249474364
749,0.36434710025787354,0.48199328780174255,0.95,0.83,0.0006299605249474364
750,0.3652637004852295,0.4822184443473816,0.95,0.83,0.0006299605249474364
751,0.36521080136299133,0.4823583960533142,0.95,0.83,0.0006299605249474364
752,0.3638637661933899,0.4824296236038208,0.95,0.83,0.0006299605249474364
753,0.3657515347003937,0.4825321435928345,0.95,0.83,0.0006299605249474364
754,0.3659573793411255,0.48245909810066223,0.95,0.83,0.0006299605249474364
755,0.3663097321987152,0.4824141263961792,0.95,0.83,0.0006299605249474364
756,0.3651680648326874,0.4823966920375824,0.95,0.83,0.0006299605249474364
757,0.3653150498867035,0.48258674144744873,0.95,0.83,0.0006299605249474364
758,0.3654431104660034,0.4822269678115845,0.95,0.83,0.0006299605249474364
759,0.3645399510860443,0.481881320476532,0.95,0.83,0.0006299605249474364
760,0.3659957945346832,0.48201805353164673,0.95,0.83,0.0006299605249474364
761,0.3644272983074188,0.4822779893875122,0.95,0.83,0.0006299605249474364
762,0.3644404709339142,0.48272034525871277,0.95,0.83,0.0006299605249474364
763,0.3649749457836151,0.4820440411567688,0.95,0.83,0.0006299605249474364
764,0.36511433124542236,0.48124486207962036,0.95,0.83,0.0006299605249474364
765,0.3649015426635742,0.4807007908821106,0.95,0.84,0.0006299605249474364
766,0.36400219798088074,0.48020851612091064,0.95,0.83,0.0006299605249474364
767,0.36411425471305847,0.4794924557209015,0.95,0.84,0.0006299605249474364
768,0.36431214213371277,0.4788345396518707,0.95,0.84,0.0006299605249474364
769,0.36464813351631165,0.4782809317111969,0.95,0.84,0.0006299605249474364
770,0.36446207761764526,0.4778030812740326,0.95,0.84,0.0006299605249474364
771,0.36506369709968567,0.477387934923172,0.95,0.84,0.0006299605249474364
772,0.3639979958534241,0.4770283102989197,0.95,0.84,0.0006299605249474364
773,0.36533603072166443,0.4766961932182312,0.95,0.84,0.0006299605249474364
774,0.36431390047073364,0.4763018488883972,0.95,0.84,0.0006299605249474364
775,0.36585354804992676,0.4758096933364868,0.95,0.84,0.0006299605249474364
776,0.3642628490924835,0.4750375747680664,0.95,0.84,0.0006299605249474364
777,0.3646300435066223,0.47401368618011475,0.95,0.84,0.0006299605249474364
778,0.36721131205558777,0.4724457263946533,0.95,0.84,0.0006299605249474364
779,0.36383721232414246,0.47079822421073914,0.95,0.84,0.0006299605249474364
780,0.36454495787620544,0.46918341517448425,0.95,0.85,0.0006299605249474364
781,0.36426132917404175,0.46817466616630554,0.95,0.85,0.0006299605249474364
782,0.3642507493495941,0.46760204434394836,0.95,0.85,0.0006299605249474364
783,0.3649098575115204,0.4674374759197235,0.95,0.85,0.0006299605249474364
784,0.36637982726097107,0.46789467334747314,0.95,0.84,0.0006299605249474364
785,0.363783061504364,0.4683831036090851,0.95,0.84,0.0006299605249474364
786,0.36444994807243347,0.4687923192977905,0.95,0.84,0.0006299605249474364
787,0.3670710325241089,0.46619582176208496,0.95,0.84,0.0006299605249474364
788,0.3649599850177765,0.46687397360801697,0.95,0.84,0.0006299605249474364
789,0.36420729756355286,0.4714565575122833,0.95,0.84,0.0006299605249474364
790,0.36509403586387634,0.4726661443710327,0.95,0.84,0.0006299605249474364
791,0.3639093339443207,0.4747048616409302,0.95,0.84,0.0006299605249474364
792,0.36466971039772034,0.478824645280838,0.95,0.83,0.0006299605249474364
793,0.3650144338607788,0.4847782552242279,0.95,0.82,0.0006299605249474364
794,0.3654792904853821,0.48897868394851685,0.95,0.82,0.0006299605249474364
795,0.36387503147125244,0.4904996454715729,0.95,0.82,0.0006299605249474364
796,0.36402371525764465,0.490631103515625,0.95,0.82,0.0006299605249474364
797,0.3639625310897827,0.48968201875686646,0.95,0.82,0.0006299605249474364
798,0.36576229333877563,0.48332270979881287,0.95,0.83,0.0006299605249474364
799,0.3638266623020172,0.48102784156799316,0.95,0.83,0.0006299605249474364
800,0.36393970251083374,0.4784291088581085,0.95,0.83,0.0006299605249474364
801,0.3638099730014801,0.47539401054382324,0.95,0.84,0.0006299605249474364
802,0.3644712567329407,0.474437415599823,0.95,0.84,0.0006299605249474364
803,0.36635735630989075,0.47724640369415283,0.95,0.83,0.0006299605249474364
804,0.36961108446121216,0.4801720380783081,0.94,0.83,0.0006299605249474364
805,0.36387431621551514,0.48021697998046875,0.95,0.83,0.0006299605249474364
806,0.36465469002723694,0.479953795671463,0.95,0.83,0.0006299605249474364
807,0.3682575523853302,0.4791865646839142,0.94,0.83,0.0006299605249474364
808,0.36522606015205383,0.4786582589149475,0.95,0.83,0.0006299605249474364
809,0.36466026306152344,0.4790622591972351,0.95,0.84,0.0006299605249474364
810,0.36696285009384155,0.4792875349521637,0.95,0.83,0.0006299605249474364
811,0.3663273751735687,0.48032674193382263,0.95,0.83,0.0006299605249474364
812,0.36485183238983154,0.48109209537506104,0.95,0.83,0.0006299605249474364
813,0.36479946970939636,0.4817490875720978,0.95,0.83,0.0006299605249474364
814,0.3643236458301544,0.4822363257408142,0.95,0.83,0.0006299605249474364
815,0.36402103304862976,0.48257961869239807,0.95,0.83,0.0006299605249474364
816,0.3657403290271759,0.482808917760849,0.95,0.83,0.0006299605249474364
817,0.36481669545173645,0.48301756381988525,0.95,0.83,0.0006299605249474364
818,0.3645179867744446,0.4834311306476593,0.95,0.83,0.0006299605249474364
819,0.36168524622917175,0.48420464992523193,0.95,0.83,0.0006299605249474364
820,0.36525478959083557,0.485309362411499,0.95,0.83,0.0006299605249474364
821,0.3648117482662201,0.4874202609062195,0.95,0.82,0.0006299605249474364
822,0.3635444641113281,0.487491637468338,0.95,0.82,0.0006299605249474364
823,0.3655422329902649,0.4862346351146698,0.95,0.82,0.0006299605249474364
824,0.36428940296173096,0.48543035984039307,0.95,0.83,0.0006299605249474364
825,0.3649469017982483,0.48411324620246887,0.95,0.83,0.0006299605249474364
826,0.36425289511680603,0.48336440324783325,0.95,0.83,0.0006299605249474364
827,0.3641112446784973,0.4829566478729248,0.95,0.83,0.0006299605249474364
828,0.3662588894367218,0.48249682784080505,0.95,0.83,0.0006299605249474364
829,0.3653004765510559,0.4818996787071228,0.95,0.83,0.0006299605249474364
830,0.3668530285358429,0.4795709550380707,0.95,0.83,0.0006299605249474364
831,0.36415302753448486,0.47828006744384766,0.95,0.84,0.0006299605249474364
832,0.3648008704185486,0.4858930706977844,0.95,0.82,0.0006299605249474364
833,0.36398208141326904,0.49046581983566284,0.95,0.82,0.0006299605249474364
834,0.3639024496078491,0.490841269493103,0.95,0.82,0.0006299605249474364
835,0.3644340932369232,0.49092960357666016,0.95,0.82,0.0006299605249474364
836,0.3646045923233032,0.49139320850372314,0.95,0.82,0.0006299605249474364
837,0.3640827238559723,0.4923139214515686,0.95,0.82,0.0006299605249474364
838,0.36380526423454285,0.4933921694755554,0.95,0.82,0.0006299605249474364
839,0.3662801682949066,0.49290797114372253,0.95,0.82,0.0006299605249474364
840,0.3638022243976593,0.4924081563949585,0.95,0.82,0.0006299605249474364
841,0.36420077085494995,0.49193835258483887,0.95,0.82,0.0006299605249474364
842,0.3639932870864868,0.49089550971984863,0.95,0.83,0.0006299605249474364
843,0.3641711473464966,0.48965537548065186,0.95,0.83,0.0006299605249474364
844,0.3650677800178528,0.4888877868652344,0.95,0.83,0.0006299605249474364
845,0.36435654759407043,0.48830631375312805,0.95,0.82,0.0006299605249474364
846,0.3637721538543701,0.48792222142219543,0.95,0.82,0.0006299605249474364
847,0.3650067150592804,0.4878268539905548,0.95,0.82,0.0006299605249474364
848,0.3650583326816559,0.48764994740486145,0.95,0.82,0.0006299605249474364
849,0.3642870783805847,0.4873460531234741,0.95,0.82,0.0006299605249474364
850,0.36995038390159607,0.48875507712364197,0.94,0.82,0.0006299605249474364
851,0.3637147545814514,0.489435613155365,0.95,0.82,0.0006299605249474364
852,0.365609347820282,0.48914939165115356,0.95,0.82,0.0006299605249474364
853,0.36412757635116577,0.48617708683013916,0.95,0.82,0.0006299605249474364
854,0.3645216226577759,0.48515576124191284,0.95,0.82,0.0006299605249474364
855,0.3667570948600769,0.4833519756793976,0.95,0.83,0.0006299605249474364
856,0.3643786907196045,0.48253554105758667,0.95,0.83,0.0006299605249474364
857,0.36448588967323303,0.48198166489601135,0.95,0.83,0.0006299605249474364
858,0.3639412224292755,0.48151302337646484,0.95,0.83,0.0006299605249474364
859,0.3636283576488495,0.4722746014595032,0.95,0.84,0.0006299605249474364
860,0.3642102777957916,0.4707663059234619,0.95,0.84,0.0006299605249474364
861,0.36584681272506714,0.470963716506958,0.95,0.84,0.0006299605249474364
862,0.3638308346271515,0.4711795747280121,0.95,0.84,0.0006299605249474364
863,0.36463460326194763,0.4712996184825897,0.95,0.84,0.0006299605249474364
864,0.36366766691207886,0.47152405977249146,0.95,0.84,0.0006299605249474364
865,0.3636752665042877,0.4719092547893524,0.95,0.84,0.0006299605249474364
866,0.36413589119911194,0.47651585936546326,0.95,0.83,0.0006299605249474364
867,0.36507824063301086,0.47502487897872925,0.95,0.84,0.0006299605249474364
868,0.36374810338020325,0.474010705947876,0.95,0.84,0.0006299605249474364
869,0.3642139136791229,0.4745119512081146,0.95,0.84,0.0006299605249474364
870,0.36475300788879395,0.47597166895866394,0.95,0.84,0.0006299605249474364
871,0.3645211160182953,0.47624728083610535,0.95,0.84,0.0006299605249474364
872,0.36513379216194153,0.476089209318161,0.95,0.84,0.0006299605249474364
873,0.36390626430511475,0.4759649932384491,0.95,0.84,0.0006299605249474364
874,0.3645607829093933,0.47706371545791626,0.95,0.83,0.0006299605249474364
875,0.36386311054229736,0.47811567783355713,0.95,0.83,0.0006299605249474364
876,0.3640679121017456,0.47908636927604675,0.95,0.83,0.0006299605249474364
877,0.3642156720161438,0.47940123081207275,0.95,0.83,0.0006299605249474364
878,0.36496761441230774,0.47901707887649536,0.95,0.83,0.0006299605249474364
879,0.3646978735923767,0.4774490296840668,0.95,0.83,0.0006299605249474364
880,0.36369675397872925,0.47588005661964417,0.95,0.83,0.0006299605249474364
881,0.36394593119621277,0.47450897097587585,0.95,0.84,0.0006299605249474364
882,0.36385345458984375,0.47321391105651855,0.95,0.84,0.0006299605249474364
883,0.3639823794364929,0.47240281105041504,0.95,0.84,0.0006299605249474364
884,0.36397263407707214,0.4717203378677368,0.95,0.84,0.0006299605249474364
885,0.364094614982605,0.47107651829719543,0.95,0.84,0.0006299605249474364
886,0.3638094961643219,0.4706510603427887,0.95,0.84,0.0006299605249474364
887,0.3639359772205353,0.470358669757843,0.95,0.84,0.0006299605249474364
888,0.3658398389816284,0.47034552693367004,0.95,0.84,0.0006299605249474364
889,0.36376678943634033,0.4703744649887085,0.95,0.84,0.0006299605249474364
890,0.3636399209499359,0.4704451858997345,0.95,0.84,0.0006299605249474364
891,0.3642416298389435,0.47052720189094543,0.95,0.84,0.0006299605249474364
892,0.36458125710487366,0.47065502405166626,0.95,0.84,0.0006299605249474364
893,0.3641856908798218,0.47084668278694153,0.95,0.84,0.0006299605249474364
894,0.3644044101238251,0.4708302617073059,0.95,0.84,0.0006299605249474364
895,0.36435696482658386,0.47092482447624207,0.95,0.84,0.0006299605249474364
896,0.36406514048576355,0.4710613489151001,0.95,0.84,0.0006299605249474364
897,0.3656725287437439,0.4712822735309601,0.95,0.84,0.0006299605249474364
898,0.36391398310661316,0.47150397300720215,0.95,0.84,0.0006299605249474364
899,0.364070862531662,0.47167861461639404,0.95,0.84,0.0006299605249474364
900,0.3648530840873718,0.47193363308906555,0.95,0.84,0.0006299605249474364
901,0.3638572692871094,0.4722079932689667,0.95,0.84,0.0006299605249474364
902,0.3643633723258972,0.4723198711872101,0.95,0.84,0.0006299605249474364
903,0.3638691306114197,0.47239720821380615,0.95,0.84,0.0006299605249474364
904,0.36442047357559204,0.47249576449394226,0.95,0.84,0.0006299605249474364
905,0.364002525806427,0.4729348421096802,0.95,0.84,0.0006299605249474364
906,0.3640274703502655,0.4745802581310272,0.95,0.84,0.0006299605249474364
907,0.3643205761909485,0.47743308544158936,0.95,0.83,0.0006299605249474364
908,0.36380860209465027,0.47958609461784363,0.95,0.83,0.0006299605249474364
909,0.36343905329704285,0.4809993803501129,0.95,0.83,0.0006299605249474364
910,0.36613354086875916,0.4819120168685913,0.95,0.83,0.0006299605249474364
911,0.36820751428604126,0.48108160495758057,0.95,0.83,0.0006299605249474364
912,0.364173024892807,0.4794989824295044,0.95,0.83,0.0006299605249474364
913,0.3637862503528595,0.47788453102111816,0.95,0.83,0.0006299605249474364
914,0.3682010769844055,0.47527042031288147,0.95,0.84,0.0006299605249474364
915,0.36370113492012024,0.4735594689846039,0.95,0.84,0.0006299605249474364
916,0.36459872126579285,0.47274062037467957,0.95,0.84,0.0006299605249474364
917,0.36369961500167847,0.4725302755832672,0.95,0.84,0.0006299605249474364
918,0.3644372522830963,0.47251129150390625,0.95,0.84,0.0006299605249474364
919,0.36541858315467834,0.47253257036209106,0.95,0.84,0.0006299605249474364
920,0.3648913502693176,0.4722972512245178,0.95,0.84,0.0004999999999999997
921,0.3642098307609558,0.4721755087375641,0.95,0.84,0.0004999999999999997
922,0.3648607134819031,0.4720379114151001,0.95,0.84,0.0004999999999999997
923,0.36380288004875183,0.4719463288784027,0.95,0.84,0.0004999999999999997
924,0.36373576521873474,0.4719616770744324,0.95,0.84,0.0004999999999999997
925,0.3650572896003723,0.47269144654273987,0.95,0.84,0.0004999999999999997
926,0.363724946975708,0.47408828139305115,0.95,0.84,0.0004999999999999997
927,0.3635581135749817,0.4764693081378937,0.95,0.83,0.0004999999999999997
928,0.3635903298854828,0.479218989610672,0.95,0.83,0.0004999999999999997
929,0.36359646916389465,0.48179057240486145,0.95,0.83,0.0004999999999999997
930,0.3638274371623993,0.4830418527126312,0.95,0.83,0.0004999999999999997
931,0.3640432059764862,0.4836979806423187,0.95,0.83,0.0004999999999999997
932,0.36396870017051697,0.48408931493759155,0.95,0.83,0.0004999999999999997
933,0.3644087314605713,0.4842420220375061,0.95,0.83,0.0004999999999999997
934,0.36354541778564453,0.48435771465301514,0.95,0.83,0.0004999999999999997
935,0.3647351861000061,0.4843956232070923,0.95,0.83,0.0004999999999999997
936,0.3643280267715454,0.4844485819339752,0.95,0.83,0.0004999999999999997
937,0.3640195429325104,0.4843391180038452,0.95,0.83,0.0004999999999999997
938,0.36380016803741455,0.48427557945251465,0.95,0.83,0.0004999999999999997
939,0.36434245109558105,0.48421409726142883,0.95,0.83,0.0004999999999999997
940,0.3643166422843933,0.4839502274990082,0.95,0.82,0.0004999999999999997
941,0.3635711967945099,0.4835048317909241,0.95,0.82,0.0004999999999999997
942,0.36424005031585693,0.48306673765182495,0.95,0.82,0.0004999999999999997
943,0.3638204336166382,0.48239853978157043,0.95,0.82,0.0004999999999999997
944,0.36391425132751465,0.4812704026699066,0.95,0.82,0.0004999999999999997
945,0.36344239115715027,0.4800218641757965,0.95,0.82,0.0004999999999999997
946,0.3639252185821533,0.4788930416107178,0.95,0.82,0.0004999999999999997
947,0.36386093497276306,0.47773391008377075,0.95,0.83,0.0004999999999999997
948,0.36491459608078003,0.476845383644104,0.95,0.83,0.0004999999999999997
949,0.36428478360176086,0.475972056388855,0.95,0.83,0.0004999999999999997
950,0.36373382806777954,0.4753199517726898,0.95,0.83,0.0004999999999999997
951,0.36373722553253174,0.4749435484409332,0.95,0.83,0.0004999999999999997
952,0.3645215332508087,0.47466591000556946,0.95,0.83,0.0004999999999999997
953,0.3641231060028076,0.4745066165924072,0.95,0.83,0.0004999999999999997
954,0.36797866225242615,0.474213182926178,0.95,0.83,0.0004999999999999997
955,0.36770156025886536,0.4744684100151062,0.95,0.83,0.0004999999999999997
956,0.36411869525909424,0.4746013581752777,0.95,0.83,0.0004999999999999997
957,0.36482319235801697,0.47467559576034546,0.95,0.83,0.0004999999999999997
958,0.36357441544532776,0.4747193455696106,0.95,0.83,0.0004999999999999997
959,0.36386290192604065,0.47477617859840393,0.95,0.83,0.0004999999999999997
960,0.36378148198127747,0.47489699721336365,0.95,0.83,0.0004999999999999997
961,0.36375191807746887,0.4749945402145386,0.95,0.83,0.0004999999999999997
962,0.3644760847091675,0.4751531183719635,0.95,0.83,0.0004999999999999997
963,0.363821804523468,0.4754028618335724,0.95,0.83,0.0004999999999999997
964,0.36516880989074707,0.4756329655647278,0.95,0.83,0.0004999999999999997
965,0.36366745829582214,0.4759155213832855,0.95,0.83,0.0004999999999999997
966,0.36413100361824036,0.4766170084476471,0.95,0.83,0.0004999999999999997
967,0.3645671606063843,0.4777410924434662,0.95,0.83,0.0004999999999999997
968,0.36352092027664185,0.47905129194259644,0.95,0.82,0.0004999999999999997
969,0.3636159598827362,0.4801587760448456,0.95,0.82,0.0004999999999999997
970,0.3640161156654358,0.4785503149032593,0.95,0.83,0.0004999999999999997
971,0.3649584949016571,0.47696956992149353,0.95,0.84,0.0004999999999999997
972,0.36446189880371094,0.47592154145240784,0.95,0.84,0.0004999999999999997
973,0.36396560072898865,0.47518372535705566,0.95,0.84,0.0004999999999999997
974,0.3634876608848572,0.4745784103870392,0.95,0.84,0.0004999999999999997
975,0.3641676604747772,0.4739769399166107,0.95,0.84,0.0004999999999999997
976,0.3640051782131195,0.4733891785144806,0.95,0.84,0.0004999999999999997
977,0.3668906092643738,0.47278109192848206,0.95,0.84,0.0004999999999999997
978,0.36381587386131287,0.4721950888633728,0.95,0.84,0.0004999999999999997
979,0.36420831084251404,0.4718078672885895,0.95,0.84,0.0004999999999999997
980,0.36417078971862793,0.47160300612449646,0.95,0.84,0.0004999999999999997
981,0.3639310598373413,0.4715152680873871,0.95,0.84,0.0004999999999999997
982,0.3637240529060364,0.47146907448768616,0.95,0.84,0.0004999999999999997
983,0.36383357644081116,0.4715064764022827,0.95,0.84,0.0004999999999999997
984,0.36359745264053345,0.4715558886528015,0.95,0.84,0.0004999999999999997
985,0.364157497882843,0.47187340259552,0.95,0.84,0.0004999999999999997
986,0.36449313163757324,0.4722539186477661,0.95,0.84,0.0004999999999999997
987,0.36364176869392395,0.4728935956954956,0.95,0.84,0.0004999999999999997
988,0.3679213225841522,0.47323817014694214,0.94,0.84,0.0004999999999999997
989,0.36412447690963745,0.4732753038406372,0.95,0.84,0.0004999999999999997
990,0.3669883608818054,0.47254711389541626,0.95,0.84,0.0004999999999999997
991,0.36421337723731995,0.4723377227783203,0.95,0.84,0.0004999999999999997
992,0.364436537027359,0.4723958969116211,0.95,0.84,0.0004999999999999997
993,0.3651931881904602,0.4728449285030365,0.95,0.84,0.0004999999999999997
994,0.3636089563369751,0.4734363853931427,0.95,0.84,0.0004999999999999997
995,0.36379536986351013,0.4742110073566437,0.95,0.84,0.0004999999999999997
996,0.3641327917575836,0.4750952422618866,0.95,0.84,0.0004999999999999997
997,0.37010514736175537,0.47563454508781433,0.94,0.84,0.0004999999999999997
998,0.3634687066078186,0.47609686851501465,0.95,0.84,0.0004999999999999997
999,0.3635493516921997,0.47662460803985596,0.95,0.84,0.0004999999999999997
1000,0.36265459656715393,0.4771214425563812,0.95,0.83,0.0004999999999999997
1001,0.36358174681663513,0.47740626335144043,0.95,0.83,0.0004999999999999997
1002,0.36339253187179565,0.47769802808761597,0.95,0.83,0.0004999999999999997
1003,0.3645821511745453,0.4767502248287201,0.95,0.84,0.0004999999999999997
1004,0.36366328597068787,0.4760419726371765,0.95,0.84,0.0004999999999999997
1005,0.3637058138847351,0.4754278063774109,0.95,0.84,0.0004999999999999997
1006,0.36425530910491943,0.4748101532459259,0.95,0.84,0.0004999999999999997
1007,0.3651624023914337,0.4760197401046753,0.95,0.84,0.0004999999999999997
1008,0.3638148903846741,0.47771817445755005,0.95,0.83,0.0004999999999999997
1009,0.3634639084339142,0.4802633225917816,0.95,0.83,0.0004999999999999997
1010,0.364228218793869,0.48463892936706543,0.95,0.82,0.0004999999999999997
1011,0.3636489510536194,0.48829028010368347,0.95,0.82,0.0004999999999999997
1012,0.36383795738220215,0.49053433537483215,0.95,0.82,0.0004999999999999997
1013,0.3639974892139435,0.49127236008644104,0.95,0.82,0.0004999999999999997
1014,0.36346718668937683,0.4912642240524292,0.95,0.82,0.0004999999999999997
1015,0.3635428547859192,0.4911479651927948,0.95,0.82,0.0004999999999999997
1016,0.3636828362941742,0.4908978343009949,0.95,0.82,0.0004999999999999997
1017,0.36372482776641846,0.4906223714351654,0.95,0.82,0.0004999999999999997
1018,0.3647956848144531,0.4896034598350525,0.95,0.82,0.0004999999999999997
1019,0.363933801651001,0.4884941875934601,0.95,0.82,0.0004999999999999997
1020,0.3639530837535858,0.4873797595500946,0.95,0.82,0.0004999999999999997
1021,0.3639277517795563,0.4862770140171051,0.95,0.83,0.00039685026299204955
1022,0.3637685775756836,0.48575007915496826,0.95,0.83,0.00039685026299204955
1023,0.36423763632774353,0.485768586397171,0.95,0.83,0.00039685026299204955
1024,0.36394596099853516,0.4859137237071991,0.95,0.83,0.00039685026299204955
1025,0.3640177547931671,0.4865259528160095,0.95,0.82,0.00039685026299204955
1026,0.36351245641708374,0.48700782656669617,0.95,0.82,0.00039685026299204955
1027,0.36430490016937256,0.4875689744949341,0.95,0.82,0.00039685026299204955
1028,0.36395877599716187,0.48811835050582886,0.95,0.82,0.00039685026299204955
1029,0.3635621964931488,0.48867666721343994,0.95,0.82,0.00039685026299204955
1030,0.3641011118888855,0.4887564480304718,0.95,0.82,0.00039685026299204955
1031,0.36348986625671387,0.4887932538986206,0.95,0.82,0.00039685026299204955
1032,0.36384132504463196,0.4890087842941284,0.95,0.82,0.00039685026299204955
1033,0.3641556203365326,0.48876652121543884,0.95,0.82,0.00039685026299204955
1034,0.3641938865184784,0.48859527707099915,0.95,0.82,0.00039685026299204955
1035,0.36534881591796875,0.48782116174697876,0.95,0.82,0.00039685026299204955
1036,0.3637171983718872,0.487003892660141,0.95,0.82,0.00039685026299204955
1037,0.3672412633895874,0.4814683198928833,0.95,0.83,0.00039685026299204955
1038,0.3634587228298187,0.487804114818573,0.95,0.82,0.00039685026299204955
1039,0.36442631483078003,0.47151798009872437,0.95,0.83,0.00039685026299204955
1040,0.369072824716568,0.4852578341960907,0.95,0.82,0.00039685026299204955
1041,0.41724395751953125,0.5189540982246399,0.89,0.8,0.00039685026299204955
1042,0.45132994651794434,0.5448803901672363,0.86,0.76,0.00039685026299204955
1043,0.42152130603790283,0.5104775428771973,0.89,0.8,0.00039685026299204955
1044,0.4453358054161072,0.5073118209838867,0.87,0.81,0.00039685026299204955
1045,0.47107142210006714,0.5182600617408752,0.83,0.8,0.00039685026299204955
1046,0.4683775305747986,0.5358018279075623,0.84,0.78,0.00039685026299204955
1047,0.4260815382003784,0.5545845031738281,0.89,0.75,0.00039685026299204955
1048,0.4070013463497162,0.5654038786888123,0.91,0.75,0.00039685026299204955
1049,0.3954732418060303,0.5592666864395142,0.92,0.75,0.00039685026299204955
1050,0.42052701115608215,0.5625255107879639,0.89,0.75,0.00039685026299204955
1051,0.3885124921798706,0.5433606505393982,0.92,0.76,0.00039685026299204955
1052,0.3884713649749756,0.5273004174232483,0.93,0.78,0.00039685026299204955
1053,0.39005592465400696,0.5157670378684998,0.93,0.79,0.00039685026299204955
1054,0.39768916368484497,0.5089923739433289,0.92,0.81,0.00039685026299204955
1055,0.39166343212127686,0.5170779228210449,0.91,0.8,0.00039685026299204955
1056,0.38210001587867737,0.505362331867218,0.93,0.81,0.00039685026299204955
1057,0.4141250550746918,0.49346259236335754,0.9,0.82,0.00039685026299204955
1058,0.3938266634941101,0.48157191276550293,0.92,0.83,0.00039685026299204955
1059,0.40606680512428284,0.46404561400413513,0.91,0.85,0.00039685026299204955
1060,0.4074108600616455,0.4792611598968506,0.91,0.84,0.00039685026299204955
1061,0.39701420068740845,0.47961685061454773,0.92,0.84,0.00039685026299204955
1062,0.4154285788536072,0.48033854365348816,0.89,0.84,0.00039685026299204955
1063,0.4093114733695984,0.48193275928497314,0.9,0.83,0.00039685026299204955
1064,0.38833656907081604,0.4879515469074249,0.93,0.82,0.00039685026299204955
1065,0.38283398747444153,0.4857250154018402,0.94,0.82,0.00039685026299204955
1066,0.3759410083293915,0.4909856915473938,0.94,0.82,0.00039685026299204955
1067,0.37152716517448425,0.4915522634983063,0.94,0.82,0.00039685026299204955
1068,0.37704890966415405,0.48796090483665466,0.94,0.83,0.00039685026299204955
1069,0.3901473581790924,0.4956241548061371,0.93,0.82,0.00039685026299204955
1070,0.3814588487148285,0.5009563565254211,0.93,0.81,0.00039685026299204955
1071,0.38082945346832275,0.5043421387672424,0.93,0.81,0.00039685026299204955
1072,0.3806971311569214,0.5069785118103027,0.94,0.81,0.00039685026299204955
1073,0.3819882869720459,0.507423996925354,0.93,0.81,0.00039685026299204955
1074,0.38396018743515015,0.5071428418159485,0.93,0.81,0.00039685026299204955
1075,0.3877702057361603,0.5042808055877686,0.93,0.81,0.00039685026299204955
1076,0.38170695304870605,0.49962151050567627,0.93,0.81,0.00039685026299204955
1077,0.3863579034805298,0.49283015727996826,0.94,0.82,0.00039685026299204955
1078,0.38040682673454285,0.49227750301361084,0.93,0.82,0.00039685026299204955
1079,0.37456727027893066,0.49327555298805237,0.94,0.82,0.00039685026299204955
1080,0.3749971389770508,0.49479907751083374,0.94,0.82,0.00039685026299204955
1081,0.3771165609359741,0.4917817711830139,0.94,0.82,0.00039685026299204955
1082,0.37414100766181946,0.48523634672164917,0.94,0.83,0.00039685026299204955
1083,0.3743242621421814,0.4842452108860016,0.94,0.83,0.00039685026299204955
1084,0.3768172562122345,0.4825417399406433,0.94,0.83,0.00039685026299204955
1085,0.37604397535324097,0.4790038764476776,0.94,0.83,0.00039685026299204955
1086,0.3743510842323303,0.4761868715286255,0.94,0.84,0.00039685026299204955
1087,0.36614105105400085,0.4741184115409851,0.95,0.84,0.00039685026299204955
1088,0.36611637473106384,0.4848180413246155,0.95,0.83,0.00039685026299204955
1089,0.3653922379016876,0.49188515543937683,0.95,0.82,0.00039685026299204955
1090,0.3654211461544037,0.4944593012332916,0.95,0.82,0.00039685026299204955
1091,0.37194621562957764,0.49179720878601074,0.95,0.82,0.00039685026299204955
1092,0.36598336696624756,0.48651018738746643,0.95,0.83,0.00039685026299204955
1093,0.3660455346107483,0.4761050045490265,0.95,0.84,0.00039685026299204955
1094,0.3686679005622864,0.4779687225818634,0.95,0.84,0.00039685026299204955
1095,0.38121506571769714,0.4779677093029022,0.93,0.83,0.00039685026299204955
1096,0.3647922873497009,0.4777262508869171,0.95,0.83,0.00039685026299204955
1097,0.3664728105068207,0.47731396555900574,0.95,0.83,0.00039685026299204955
1098,0.3646625280380249,0.47626248002052307,0.95,0.83,0.00039685026299204955
1099,0.3645274341106415,0.4746902883052826,0.95,0.83,0.00039685026299204955
1100,0.36615294218063354,0.4728247821331024,0.95,0.84,0.00039685026299204955
1101,0.3681583106517792,0.4716585874557495,0.95,0.84,0.00039685026299204955
1102,0.36871445178985596,0.4716716706752777,0.95,0.84,0.00039685026299204955
1103,0.36491692066192627,0.4722241163253784,0.95,0.84,0.00039685026299204955
1104,0.36596283316612244,0.4742305874824524,0.95,0.84,0.00039685026299204955
1105,0.3637930154800415,0.47892647981643677,0.95,0.83,0.00039685026299204955
1106,0.36662596464157104,0.48221683502197266,0.95,0.83,0.00039685026299204955
1107,0.3636022210121155,0.4849826395511627,0.95,0.83,0.00039685026299204955
1108,0.36442458629608154,0.49190130829811096,0.95,0.82,0.00039685026299204955
1109,0.3647081255912781,0.48471835255622864,0.95,0.83,0.00039685026299204955
1110,0.3639165461063385,0.48219066858291626,0.95,0.83,0.00039685026299204955
1111,0.3644031882286072,0.4803895056247711,0.95,0.83,0.00039685026299204955
1112,0.3640865087509155,0.47744712233543396,0.95,0.83,0.00039685026299204955
1113,0.3660873472690582,0.47440510988235474,0.95,0.84,0.00039685026299204955
1114,0.3638206124305725,0.47269222140312195,0.95,0.84,0.00039685026299204955
1115,0.36470383405685425,0.4739009141921997,0.95,0.84,0.00039685026299204955
1116,0.3640725016593933,0.47625336050987244,0.95,0.84,0.00039685026299204955
1117,0.3649507164955139,0.4806833565235138,0.95,0.83,0.00039685026299204955
1118,0.36475715041160583,0.4841253161430359,0.95,0.83,0.00039685026299204955
1119,0.36470258235931396,0.48503178358078003,0.95,0.83,0.00039685026299204955
1120,0.3655330240726471,0.48546141386032104,0.95,0.83,0.00039685026299204955
1121,0.36630958318710327,0.48579174280166626,0.95,0.82,0.00039685026299204955
1122,0.3656523823738098,0.4857271611690521,0.95,0.82,0.00031498026247371797
1123,0.36398592591285706,0.4856523871421814,0.95,0.83,0.00031498026247371797
1124,0.36444583535194397,0.48557156324386597,0.95,0.83,0.00031498026247371797
1125,0.3638807535171509,0.48548775911331177,0.95,0.83,0.00031498026247371797
1126,0.3647087514400482,0.4854010045528412,0.95,0.83,0.00031498026247371797
1127,0.3639060854911804,0.48531201481819153,0.95,0.83,0.00031498026247371797
1128,0.36904630064964294,0.4849219024181366,0.95,0.83,0.00031498026247371797
1129,0.36433181166648865,0.4845964312553406,0.95,0.83,0.00031498026247371797
1130,0.3684266209602356,0.48435497283935547,0.94,0.83,0.00031498026247371797
1131,0.3642154037952423,0.48414793610572815,0.95,0.83,0.00031498026247371797
1132,0.3640052378177643,0.483962744474411,0.95,0.83,0.00031498026247371797
1133,0.36561962962150574,0.4837406277656555,0.95,0.83,0.00031498026247371797
1134,0.36412569880485535,0.48351627588272095,0.95,0.83,0.00031498026247371797
1135,0.3647521734237671,0.4833008944988251,0.95,0.83,0.00031498026247371797
1136,0.3686877191066742,0.48304426670074463,0.95,0.83,0.00031498026247371797
1137,0.36620989441871643,0.48271802067756653,0.95,0.83,0.00031498026247371797
1138,0.36391663551330566,0.48232361674308777,0.95,0.83,0.00031498026247371797
1139,0.36369556188583374,0.48189547657966614,0.95,0.83,0.00031498026247371797
1140,0.364197313785553,0.48142609000205994,0.95,0.83,0.00031498026247371797
1141,0.3638818860054016,0.48092541098594666,0.95,0.83,0.00031498026247371797
1142,0.36389750242233276,0.4803735315799713,0.95,0.83,0.00031498026247371797
1143,0.3642095923423767,0.4797971844673157,0.95,0.83,0.00031498026247371797
1144,0.36617785692214966,0.47920307517051697,0.95,0.83,0.00031498026247371797
1145,0.3641136884689331,0.4786636233329773,0.95,0.83,0.00031498026247371797
1146,0.3639461398124695,0.47831088304519653,0.95,0.83,0.00031498026247371797
1147,0.36437293887138367,0.47797584533691406,0.95,0.83,0.00031498026247371797
1148,0.36386725306510925,0.477672278881073,0.95,0.83,0.00031498026247371797
1149,0.36447960138320923,0.4773333668708801,0.95,0.83,0.00031498026247371797
1150,0.36373841762542725,0.47706279158592224,0.95,0.83,0.00031498026247371797
1151,0.3638710081577301,0.47702860832214355,0.95,0.83,0.00031498026247371797
1152,0.3642420470714569,0.4771793484687805,0.95,0.83,0.00031498026247371797
1153,0.36440423130989075,0.4772936701774597,0.95,0.83,0.00031498026247371797
1154,0.3641732931137085,0.4774475395679474,0.95,0.83,0.00031498026247371797
1155,0.3657812178134918,0.47761768102645874,0.95,0.83,0.00031498026247371797
1156,0.3639202117919922,0.4777413308620453,0.95,0.83,0.00031498026247371797
1157,0.36505812406539917,0.47780701518058777,0.95,0.83,0.00031498026247371797
1158,0.36403191089630127,0.4779244661331177,0.95,0.83,0.00031498026247371797
1159,0.364060640335083,0.4781930446624756,0.95,0.83,0.00031498026247371797
1160,0.36394375562667847,0.4784739017486572,0.95,0.83,0.00031498026247371797
1161,0.36383429169654846,0.47871798276901245,0.95,0.83,0.00031498026247371797
1162,0.3640924096107483,0.4788880944252014,0.95,0.83,0.00031498026247371797
1163,0.364231675863266,0.47905677556991577,0.95,0.83,0.00031498026247371797
1164,0.36839038133621216,0.4792945086956024,0.95,0.83,0.00031498026247371797
1165,0.36440330743789673,0.47950977087020874,0.95,0.83,0.00031498026247371797
1166,0.3639199733734131,0.4797055125236511,0.95,0.83,0.00031498026247371797
1167,0.3639799952507019,0.47995349764823914,0.95,0.83,0.00031498026247371797
1168,0.36416035890579224,0.4802244305610657,0.95,0.83,0.00031498026247371797
1169,0.3646482825279236,0.4805222749710083,0.95,0.83,0.00031498026247371797
1170,0.36357250809669495,0.4807615578174591,0.95,0.83,0.00031498026247371797
1171,0.36406993865966797,0.48097288608551025,0.95,0.83,0.00031498026247371797
1172,0.3640042841434479,0.4811569154262543,0.95,0.83,0.00031498026247371797
1173,0.36367738246917725,0.48131388425827026,0.95,0.83,0.00031498026247371797
1174,0.36495456099510193,0.48152652382850647,0.95,0.83,0.00031498026247371797
1175,0.365742027759552,0.48176100850105286,0.95,0.83,0.00031498026247371797
1176,0.3639935255050659,0.48199325799942017,0.95,0.83,0.00031498026247371797
1177,0.363829106092453,0.48229995369911194,0.95,0.83,0.00031498026247371797
1178,0.36359313130378723,0.4826212227344513,0.95,0.83,0.00031498026247371797
1179,0.3639494776725769,0.48300063610076904,0.95,0.83,0.00031498026247371797
1180,0.3652397394180298,0.483327180147171,0.95,0.83,0.00031498026247371797
1181,0.36380839347839355,0.4837457239627838,0.95,0.83,0.00031498026247371797
1182,0.3636321723461151,0.48419684171676636,0.95,0.83,0.00031498026247371797
1183,0.3641728162765503,0.48442161083221436,0.95,0.83,0.00031498026247371797
1184,0.36400219798088074,0.48466479778289795,0.95,0.83,0.00031498026247371797
1185,0.3637950122356415,0.48493874073028564,0.95,0.83,0.00031498026247371797
1186,0.36413705348968506,0.48506203293800354,0.95,0.83,0.00031498026247371797
1187,0.36420613527297974,0.4852373003959656,0.95,0.83,0.00031498026247371797
1188,0.3646440804004669,0.4856249988079071,0.95,0.83,0.00031498026247371797
1189,0.3635653555393219,0.4860101342201233,0.95,0.82,0.00031498026247371797
1190,0.36473071575164795,0.48637425899505615,0.95,0.82,0.00031498026247371797
1191,0.36439281702041626,0.4869166314601898,0.95,0.82,0.00031498026247371797
1192,0.36489954590797424,0.4872293174266815,0.95,0.82,0.00031498026247371797
1193,0.36577364802360535,0.4842411279678345,0.95,0.83,0.00031498026247371797
1194,0.3638010025024414,0.48269423842430115,0.95,0.83,0.00031498026247371797
1195,0.36386576294898987,0.4819529056549072,0.95,0.83,0.00031498026247371797
1196,0.36419913172721863,0.4814707040786743,0.95,0.83,0.00031498026247371797
1197,0.366295725107193,0.48101770877838135,0.95,0.83,0.00031498026247371797
1198,0.3634822964668274,0.4804909825325012,0.95,0.83,0.00031498026247371797
1199,0.36425524950027466,0.47991517186164856,0.95,0.83,0.00031498026247371797
1200,0.3644920289516449,0.4792788624763489,0.95,0.83,0.00031498026247371797
1201,0.36366382241249084,0.478622704744339,0.95,0.83,0.00031498026247371797
1202,0.36384066939353943,0.4780348539352417,0.95,0.83,0.00031498026247371797
1203,0.363793283700943,0.47747886180877686,0.95,0.83,0.00031498026247371797
1204,0.3650833070278168,0.47677499055862427,0.95,0.83,0.00031498026247371797
1205,0.3646847903728485,0.4767722189426422,0.95,0.83,0.00031498026247371797
1206,0.3641458749771118,0.47679394483566284,0.95,0.83,0.00031498026247371797
1207,0.36372071504592896,0.476836621761322,0.95,0.83,0.00031498026247371797
1208,0.36387795209884644,0.47703590989112854,0.95,0.83,0.00031498026247371797
1209,0.36463463306427,0.47717583179473877,0.95,0.83,0.00031498026247371797
1210,0.3652747869491577,0.47732678055763245,0.95,0.83,0.00031498026247371797
1211,0.3642246723175049,0.4773961305618286,0.95,0.83,0.00031498026247371797
1212,0.3643653988838196,0.4776475429534912,0.95,0.83,0.00031498026247371797
1213,0.36346331238746643,0.4778916537761688,0.95,0.83,0.00031498026247371797
1214,0.36408889293670654,0.47809237241744995,0.95,0.83,0.00031498026247371797
1215,0.36347371339797974,0.47827988862991333,0.95,0.83,0.00031498026247371797
1216,0.363907128572464,0.4784305691719055,0.95,0.83,0.00031498026247371797
1217,0.36548542976379395,0.479202538728714,0.95,0.83,0.00031498026247371797
1218,0.3704061210155487,0.4798116385936737,0.94,0.83,0.00031498026247371797
1219,0.36434701085090637,0.48032310605049133,0.95,0.83,0.00031498026247371797
1220,0.36525219678878784,0.4807664453983307,0.95,0.83,0.00031498026247371797
1221,0.36373475193977356,0.4811059236526489,0.95,0.83,0.00031498026247371797
1222,0.3644663095474243,0.48132458329200745,0.95,0.83,0.00031498026247371797
1223,0.3658748269081116,0.48148876428604126,0.95,0.83,0.0002499999999999997
1224,0.3637922704219818,0.4816060960292816,0.95,0.83,0.0002499999999999997
1225,0.36371418833732605,0.4816945791244507,0.95,0.83,0.0002499999999999997
1226,0.36382952332496643,0.4817805588245392,0.95,0.83,0.0002499999999999997
1227,0.3635571300983429,0.4818481504917145,0.95,0.83,0.0002499999999999997
1228,0.3638489544391632,0.48187950253486633,0.95,0.83,0.0002499999999999997
1229,0.36365118622779846,0.4819033145904541,0.95,0.83,0.0002499999999999997
1230,0.3662644326686859,0.4818337559700012,0.95,0.83,0.0002499999999999997
1231,0.3645170331001282,0.48180267214775085,0.95,0.83,0.0002499999999999997
1232,0.36461204290390015,0.48177143931388855,0.95,0.83,0.0002499999999999997
1233,0.36388707160949707,0.4817802906036377,0.95,0.83,0.0002499999999999997
1234,0.3637736439704895,0.4817640781402588,0.95,0.83,0.0002499999999999997
1235,0.3635824918746948,0.48173752427101135,0.95,0.83,0.0002499999999999997
1236,0.3635713458061218,0.48171019554138184,0.95,0.83,0.0002499999999999997
1237,0.3652421832084656,0.4815885126590729,0.95,0.83,0.0002499999999999997
1238,0.3637412190437317,0.48147162795066833,0.95,0.83,0.0002499999999999997
1239,0.36495307087898254,0.4812951982021332,0.95,0.83,0.0002499999999999997
1240,0.3640623986721039,0.48112887144088745,0.95,0.83,0.0002499999999999997
1241,0.363618940114975,0.480980783700943,0.95,0.83,0.0002499999999999997
1242,0.36427658796310425,0.4808408319950104,0.95,0.83,0.0002499999999999997
1243,0.36347606778144836,0.48071643710136414,0.95,0.83,0.0002499999999999997
1244,0.36395540833473206,0.4806564748287201,0.95,0.83,0.0002499999999999997
1245,0.3646773397922516,0.4805939495563507,0.95,0.83,0.0002499999999999997
1246,0.3665165603160858,0.48048874735832214,0.95,0.83,0.0002499999999999997
1247,0.3654367923736572,0.4805764853954315,0.95,0.83,0.0002499999999999997
1248,0.36341798305511475,0.48066413402557373,0.95,0.83,0.0002499999999999997
1249,0.3647126853466034,0.48076575994491577,0.95,0.83,0.0002499999999999997
1250,0.36380118131637573,0.4808582067489624,0.95,0.83,0.0002499999999999997
1251,0.3675147294998169,0.480863481760025,0.95,0.83,0.0002499999999999997
1252,0.36362195014953613,0.48089489340782166,0.95,0.83,0.0002499999999999997
1253,0.36377087235450745,0.48089733719825745,0.95,0.83,0.0002499999999999997
1254,0.3636016547679901,0.48090100288391113,0.95,0.83,0.0002499999999999997
1255,0.3650338649749756,0.48088863492012024,0.95,0.83,0.0002499999999999997
1256,0.3643880784511566,0.4808960258960724,0.95,0.83,0.0002499999999999997
1257,0.3633594214916229,0.4809078872203827,0.95,0.83,0.0002499999999999997
1258,0.36343592405319214,0.4809195399284363,0.95,0.83,0.0002499999999999997
1259,0.3637417256832123,0.4809267520904541,0.95,0.83,0.0002499999999999997
1260,0.3637394309043884,0.4809212386608124,0.95,0.83,0.0002499999999999997
1261,0.36429595947265625,0.4809300899505615,0.95,0.83,0.0002499999999999997
1262,0.3659183084964752,0.4809885323047638,0.95,0.83,0.0002499999999999997
1263,0.3644341230392456,0.48102524876594543,0.95,0.83,0.0002499999999999997
1264,0.3641633093357086,0.48107948899269104,0.95,0.83,0.0002499999999999997
1265,0.3659536838531494,0.4811479151248932,0.95,0.83,0.0002499999999999997
1266,0.3635893166065216,0.48122134804725647,0.95,0.83,0.0002499999999999997
1267,0.3656538128852844,0.4813007712364197,0.95,0.83,0.0002499999999999997
1268,0.3640579581260681,0.48139747977256775,0.95,0.83,0.0002499999999999997
1269,0.36424198746681213,0.48147881031036377,0.95,0.83,0.0002499999999999997
1270,0.3663069009780884,0.4815433919429779,0.95,0.83,0.0002499999999999997
1271,0.36426976323127747,0.4816218614578247,0.95,0.83,0.0002499999999999997
1272,0.36428892612457275,0.48171138763427734,0.95,0.83,0.0002499999999999997
1273,0.36352479457855225,0.4817965030670166,0.95,0.83,0.0002499999999999997
1274,0.363951712846756,0.481889009475708,0.95,0.83,0.0002499999999999997
1275,0.3634629547595978,0.4819687008857727,0.95,0.83,0.0002499999999999997
1276,0.36556825041770935,0.48205700516700745,0.95,0.83,0.0002499999999999997
1277,0.3651431202888489,0.4821329414844513,0.95,0.83,0.0002499999999999997
1278,0.3642388582229614,0.4821555018424988,0.95,0.83,0.0002499999999999997
1279,0.3641015291213989,0.4822048246860504,0.95,0.83,0.0002499999999999997
1280,0.36413535475730896,0.4822181463241577,0.95,0.83,0.0002499999999999997
1281,0.36367321014404297,0.48220962285995483,0.95,0.83,0.0002499999999999997
1282,0.3637745678424835,0.4821620285511017,0.95,0.83,0.0002499999999999997
1283,0.36410170793533325,0.4821285009384155,0.95,0.83,0.0002499999999999997
1284,0.36348792910575867,0.48210498690605164,0.95,0.83,0.0002499999999999997
1285,0.36458754539489746,0.48208633065223694,0.95,0.83,0.0002499999999999997
1286,0.3642681837081909,0.48205965757369995,0.95,0.83,0.0002499999999999997
1287,0.3646305799484253,0.4820460081100464,0.95,0.83,0.0002499999999999997
1288,0.36367255449295044,0.482050359249115,0.95,0.83,0.0002499999999999997
1289,0.36423516273498535,0.4820438027381897,0.95,0.83,0.0002499999999999997
1290,0.36413460969924927,0.48204460740089417,0.95,0.83,0.0002499999999999997
1291,0.36413127183914185,0.4820269048213959,0.95,0.83,0.0002499999999999997
1292,0.36658766865730286,0.48200827836990356,0.95,0.83,0.0002499999999999997
1293,0.36382561922073364,0.4819822311401367,0.95,0.83,0.0002499999999999997
1294,0.36364418268203735,0.4819527566432953,0.95,0.83,0.0002499999999999997
1295,0.36348387598991394,0.4819340109825134,0.95,0.83,0.0002499999999999997
1296,0.3637305498123169,0.4819280505180359,0.95,0.83,0.0002499999999999997
1297,0.3641901910305023,0.4819156229496002,0.95,0.83,0.0002499999999999997
1298,0.36436331272125244,0.48199790716171265,0.95,0.83,0.0002499999999999997
1299,0.3643142282962799,0.4820701479911804,0.95,0.83,0.0002499999999999997
1300,0.3639380931854248,0.48217177391052246,0.95,0.83,0.0002499999999999997
1301,0.36375582218170166,0.4822562336921692,0.95,0.83,0.0002499999999999997
1302,0.3641842007637024,0.4822962284088135,0.95,0.83,0.0002499999999999997
1303,0.3648332357406616,0.48229071497917175,0.95,0.83,0.0002499999999999997
1304,0.363813579082489,0.4823010563850403,0.95,0.83,0.0002499999999999997
1305,0.36351478099823,0.4823032319545746,0.95,0.83,0.0002499999999999997
1306,0.3637223541736603,0.48229819536209106,0.95,0.83,0.0002499999999999997
1307,0.36389341950416565,0.4822804927825928,0.95,0.83,0.0002499999999999997
1308,0.3638971745967865,0.48223885893821716,0.95,0.83,0.0002499999999999997
1309,0.3652477264404297,0.48229724168777466,0.95,0.83,0.0002499999999999997
1310,0.3638302683830261,0.4822923243045807,0.95,0.83,0.0002499999999999997
1311,0.36393776535987854,0.48225948214530945,0.95,0.83,0.0002499999999999997
1312,0.364656537771225,0.4822218418121338,0.95,0.83,0.0002499999999999997
1313,0.3639458119869232,0.48218509554862976,0.95,0.83,0.0002499999999999997
1314,0.3637903928756714,0.4821537435054779,0.95,0.83,0.0002499999999999997
1315,0.36421144008636475,0.4821154475212097,0.95,0.83,0.0002499999999999997
1316,0.36377009749412537,0.4820742905139923,0.95,0.83,0.0002499999999999997
1317,0.36366263031959534,0.48204508423805237,0.95,0.83,0.0002499999999999997
1318,0.36371365189552307,0.4820176362991333,0.95,0.83,0.0002499999999999997
1319,0.3638286292552948,0.4819931089878082,0.95,0.83,0.0002499999999999997
1320,0.36346861720085144,0.4819139838218689,0.95,0.83,0.0002499999999999997
1321,0.36414965987205505,0.4818294644355774,0.95,0.83,0.0002499999999999997
1322,0.3635380268096924,0.4817582368850708,0.95,0.83,0.0002499999999999997
1323,0.36590686440467834,0.4818272292613983,0.95,0.83,0.0002499999999999997
1324,0.3635494112968445,0.4818927049636841,0.95,0.83,0.00019842513149602464
1325,0.3638385832309723,0.48193225264549255,0.95,0.83,0.00019842513149602464
1326,0.3637939393520355,0.4820108413696289,0.95,0.83,0.00019842513149602464
1327,0.3651416003704071,0.4819023907184601,0.95,0.83,0.00019842513149602464
1328,0.36746639013290405,0.48180216550827026,0.95,0.83,0.00019842513149602464
1329,0.3635697662830353,0.4817062020301819,0.95,0.83,0.00019842513149602464
1330,0.36424028873443604,0.481540322303772,0.95,0.83,0.00019842513149602464
1331,0.36341753602027893,0.48136651515960693,0.95,0.83,0.00019842513149602464
1332,0.365142285823822,0.48122918605804443,0.95,0.83,0.00019842513149602464
1333,0.3636971414089203,0.48111701011657715,0.95,0.83,0.00019842513149602464
1334,0.36674487590789795,0.4807546138763428,0.95,0.83,0.00019842513149602464
1335,0.36416488885879517,0.4804326593875885,0.95,0.83,0.00019842513149602464
1336,0.3644976019859314,0.4802040755748749,0.95,0.83,0.00019842513149602464
1337,0.3652917444705963,0.48032650351524353,0.95,0.83,0.00019842513149602464
1338,0.3636530637741089,0.48045894503593445,0.95,0.83,0.00019842513149602464
1339,0.3661937713623047,0.4806678891181946,0.95,0.83,0.00019842513149602464
1340,0.363607794046402,0.4808678925037384,0.95,0.83,0.00019842513149602464
1341,0.3647385835647583,0.4809993505477905,0.95,0.83,0.00019842513149602464
1342,0.36349692940711975,0.4811253249645233,0.95,0.83,0.00019842513149602464
1343,0.3640274703502655,0.4812386631965637,0.95,0.83,0.00019842513149602464
1344,0.3638538718223572,0.48133763670921326,0.95,0.83,0.00019842513149602464
1345,0.3637676537036896,0.4814232885837555,0.95,0.83,0.00019842513149602464
1346,0.3639290928840637,0.48148277401924133,0.95,0.83,0.00019842513149602464
1347,0.3645237386226654,0.48152145743370056,0.95,0.83,0.00019842513149602464
1348,0.3649846315383911,0.48156946897506714,0.95,0.83,0.00019842513149602464
1349,0.36443570256233215,0.4815657138824463,0.95,0.83,0.00019842513149602464
1350,0.36538058519363403,0.4815428853034973,0.95,0.83,0.00019842513149602464
1351,0.3656200170516968,0.48169711232185364,0.95,0.83,0.00019842513149602464
1352,0.3635987937450409,0.48182427883148193,0.95,0.83,0.00019842513149602464
1353,0.36360061168670654,0.4819282293319702,0.95,0.83,0.00019842513149602464
1354,0.3640952706336975,0.48200222849845886,0.95,0.83,0.00019842513149602464
1355,0.36366137862205505,0.48202040791511536,0.95,0.83,0.00019842513149602464
1356,0.3654354214668274,0.4821354150772095,0.95,0.83,0.00019842513149602464
1357,0.3635599911212921,0.48223036527633667,0.95,0.83,0.00019842513149602464
1358,0.36592042446136475,0.4823054075241089,0.95,0.83,0.00019842513149602464
1359,0.3634578585624695,0.48237860202789307,0.95,0.83,0.00019842513149602464
1360,0.3645642399787903,0.4824240803718567,0.95,0.83,0.00019842513149602464
1361,0.3635704517364502,0.48246437311172485,0.95,0.83,0.00019842513149602464
1362,0.3653009831905365,0.48233866691589355,0.95,0.83,0.00019842513149602464
1363,0.3638308346271515,0.4822216033935547,0.95,0.83,0.00019842513149602464
1364,0.363796591758728,0.48210567235946655,0.95,0.83,0.00019842513149602464
1365,0.3639107644557953,0.48199307918548584,0.95,0.83,0.00019842513149602464
1366,0.3659899830818176,0.4818241000175476,0.95,0.83,0.00019842513149602464
1367,0.36406397819519043,0.4816915988922119,0.95,0.83,0.00019842513149602464
1368,0.3636540472507477,0.4815961718559265,0.95,0.83,0.00019842513149602464
1369,0.3637503385543823,0.4814993143081665,0.95,0.83,0.00019842513149602464
1370,0.3639611005783081,0.48137226700782776,0.95,0.83,0.00019842513149602464
1371,0.36381396651268005,0.4812481999397278,0.95,0.83,0.00019842513149602464
1372,0.36205822229385376,0.48107925057411194,0.95,0.83,0.00019842513149602464
1373,0.3634554147720337,0.4809257388114929,0.95,0.83,0.00019842513149602464
1374,0.36370348930358887,0.48077934980392456,0.95,0.83,0.00019842513149602464
1375,0.3637002110481262,0.4806499779224396,0.95,0.83,0.00019842513149602464
1376,0.363621324300766,0.4805341362953186,0.95,0.83,0.00019842513149602464
1377,0.3653080463409424,0.48041293025016785,0.95,0.83,0.00019842513149602464
1378,0.363926500082016,0.480305939912796,0.95,0.83,0.00019842513149602464
1379,0.36592480540275574,0.48016464710235596,0.95,0.83,0.00019842513149602464
1380,0.3637501895427704,0.4800184667110443,0.95,0.83,0.00019842513149602464
1381,0.36460962891578674,0.47984859347343445,0.95,0.83,0.00019842513149602464
1382,0.36399662494659424,0.4796828329563141,0.95,0.83,0.00019842513149602464
1383,0.3644780218601227,0.4795587956905365,0.95,0.83,0.00019842513149602464
1384,0.3634808361530304,0.47944724559783936,0.95,0.83,0.00019842513149602464
1385,0.3635534644126892,0.479338675737381,0.95,0.83,0.00019842513149602464
1386,0.36404842138290405,0.47922036051750183,0.95,0.83,0.00019842513149602464
1387,0.36459609866142273,0.47936075925827026,0.95,0.83,0.00019842513149602464
1388,0.3633165657520294,0.4794880151748657,0.95,0.83,0.00019842513149602464
1389,0.3674520254135132,0.4795093834400177,0.94,0.83,0.00019842513149602464
1390,0.3646669089794159,0.4794834554195404,0.95,0.83,0.00019842513149602464
1391,0.3636353313922882,0.47946470975875854,0.95,0.83,0.00019842513149602464
1392,0.3636215329170227,0.47945788502693176,0.95,0.83,0.00019842513149602464
1393,0.36410781741142273,0.4794355630874634,0.95,0.83,0.00019842513149602464
1394,0.36377784609794617,0.4794294834136963,0.95,0.83,0.00019842513149602464
1395,0.36396118998527527,0.47943150997161865,0.95,0.83,0.00019842513149602464
1396,0.3636222183704376,0.4794277250766754,0.95,0.83,0.00019842513149602464
1397,0.3646121323108673,0.4794168770313263,0.95,0.83,0.00019842513149602464
1398,0.3642481863498688,0.47941797971725464,0.95,0.83,0.00019842513149602464
1399,0.36375686526298523,0.47940388321876526,0.95,0.83,0.00019842513149602464
1400,0.3654157519340515,0.47939351201057434,0.95,0.83,0.00019842513149602464
1401,0.3638174533843994,0.47934189438819885,0.95,0.83,0.00019842513149602464
1402,0.3639262020587921,0.47933658957481384,0.95,0.83,0.00019842513149602464
1403,0.3639804422855377,0.4793796241283417,0.95,0.83,0.00019842513149602464
1404,0.36435866355895996,0.47944071888923645,0.95,0.83,0.00019842513149602464
1405,0.3637615144252777,0.47951439023017883,0.95,0.83,0.00019842513149602464
1406,0.36438244581222534,0.47973373532295227,0.95,0.83,0.00019842513149602464
1407,0.3643203675746918,0.47990208864212036,0.95,0.83,0.00019842513149602464
1408,0.36413565278053284,0.4801093637943268,0.95,0.83,0.00019842513149602464
1409,0.363857626914978,0.4802848696708679,0.95,0.83,0.00019842513149602464
1410,0.36448124051094055,0.4804653227329254,0.95,0.83,0.00019842513149602464
1411,0.36388203501701355,0.48060688376426697,0.95,0.83,0.00019842513149602464
1412,0.3643074929714203,0.48070794343948364,0.95,0.83,0.00019842513149602464
1413,0.36360546946525574,0.4807913601398468,0.95,0.83,0.00019842513149602464
1414,0.36351844668388367,0.48087137937545776,0.95,0.83,0.00019842513149602464
1415,0.36370018124580383,0.4809507131576538,0.95,0.83,0.00019842513149602464
1416,0.36662861704826355,0.480960488319397,0.95,0.83,0.00019842513149602464
1417,0.35886654257774353,0.4809343218803406,0.95,0.83,0.00019842513149602464
1418,0.36374223232269287,0.48091086745262146,0.95,0.83,0.00019842513149602464
1419,0.363598108291626,0.48089420795440674,0.95,0.83,0.00019842513149602464
1420,0.3637998104095459,0.48087504506111145,0.95,0.83,0.00019842513149602464
1421,0.3656875193119049,0.48077067732810974,0.95,0.83,0.00019842513149602464
1422,0.3637813925743103,0.48066291213035583,0.95,0.83,0.00019842513149602464
1423,0.364564448595047,0.4805496335029602,0.95,0.83,0.00019842513149602464
1424,0.3635331690311432,0.4804737865924835,0.95,0.83,0.00019842513149602464
1425,0.36388808488845825,0.4803866147994995,0.95,0.83,0.00019842513149602464
1426,0.3639623522758484,0.480335533618927,0.95,0.83,0.00019842513149602464
1427,0.3636505901813507,0.4802916646003723,0.95,0.83,0.00019842513149602464
1428,0.36351773142814636,0.48025748133659363,0.95,0.83,0.00019842513149602464
1429,0.3635421097278595,0.480244517326355,0.95,0.83,0.00019842513149602464
1430,0.3648528754711151,0.48017963767051697,0.95,0.83,0.00019842513149602464
1431,0.36318135261535645,0.48011359572410583,0.95,0.83,0.00019842513149602464
1432,0.36388203501701355,0.4800606071949005,0.95,0.83,0.00019842513149602464
1433,0.3638899624347687,0.48000040650367737,0.95,0.83,0.00019842513149602464
1434,0.3635200262069702,0.4799881875514984,0.95,0.83,0.00019842513149602464
1435,0.3644786477088928,0.4800466299057007,0.95,0.83,0.00019842513149602464
1436,0.3640657663345337,0.48010218143463135,0.95,0.83,0.00019842513149602464
1437,0.3636578619480133,0.4801563024520874,0.95,0.83,0.00019842513149602464
1438,0.36330533027648926,0.48019734025001526,0.95,0.83,0.00019842513149602464
1439,0.3644702434539795,0.4802464544773102,0.95,0.83,0.00019842513149602464
1440,0.36381053924560547,0.4803014099597931,0.95,0.83,0.00019842513149602464
1441,0.3643265962600708,0.48038703203201294,0.95,0.83,0.00019842513149602464
1442,0.3669031858444214,0.4804553985595703,0.95,0.83,0.00019842513149602464
1443,0.36462539434432983,0.48051920533180237,0.95,0.83,0.00019842513149602464
1444,0.36377429962158203,0.48059549927711487,0.95,0.83,0.00019842513149602464
1445,0.36615613102912903,0.48078539967536926,0.95,0.83,0.00019842513149602464
1446,0.36387521028518677,0.48096656799316406,0.95,0.83,0.00019842513149602464
1447,0.3645668029785156,0.4810945987701416,0.95,0.83,0.00019842513149602464
1448,0.364665150642395,0.48115652799606323,0.95,0.83,0.00019842513149602464
1449,0.36358749866485596,0.48119887709617615,0.95,0.83,0.00019842513149602464
1450,0.36458414793014526,0.48119431734085083,0.95,0.83,0.00019842513149602464
1451,0.3636309802532196,0.48115208745002747,0.95,0.83,0.00019842513149602464
1452,0.36355963349342346,0.4811457395553589,0.95,0.83,0.00019842513149602464
1453,0.36348071694374084,0.48112761974334717,0.95,0.83,0.00019842513149602464
1454,0.36463236808776855,0.4810872972011566,0.95,0.83,0.00019842513149602464
1455,0.36510151624679565,0.4810730218887329,0.95,0.83,0.00019842513149602464
1456,0.3633676767349243,0.48106005787849426,0.95,0.83,0.00019842513149602464
1457,0.3638310730457306,0.48102083802223206,0.95,0.83,0.00019842513149602464
1458,0.363429456949234,0.48099011182785034,0.95,0.83,0.00019842513149602464
1459,0.3637247383594513,0.48093950748443604,0.95,0.83,0.00019842513149602464
1460,0.3637372851371765,0.4809000492095947,0.95,0.83,0.00019842513149602464
1461,0.3638323247432709,0.480856716632843,0.95,0.83,0.00019842513149602464
1462,0.3637343645095825,0.4808200001716614,0.95,0.83,0.00019842513149602464
1463,0.36385443806648254,0.4808013439178467,0.95,0.83,0.00019842513149602464
1464,0.3634105324745178,0.48080283403396606,0.95,0.83,0.00019842513149602464
1465,0.3642532229423523,0.4808158576488495,0.95,0.83,0.00019842513149602464
1466,0.36456099152565,0.4808090329170227,0.95,0.83,0.00019842513149602464
1467,0.3635142147541046,0.4808495044708252,0.95,0.83,0.00019842513149602464
1468,0.36381295323371887,0.48089560866355896,0.95,0.83,0.00019842513149602464
1469,0.3636015057563782,0.4809465706348419,0.95,0.83,0.00019842513149602464
1470,0.3645634353160858,0.4811348617076874,0.95,0.83,0.00019842513149602464
1471,0.36089932918548584,0.4812332093715668,0.95,0.83,0.00019842513149602464
1472,0.3637975752353668,0.48132479190826416,0.95,0.83,0.00019842513149602464
1473,0.36368685960769653,0.4814130663871765,0.95,0.83,0.00019842513149602464
1474,0.3643237054347992,0.4815428555011749,0.95,0.83,0.00019842513149602464
1475,0.36396855115890503,0.48163753747940063,0.95,0.83,0.00019842513149602464
1476,0.36401045322418213,0.4817230701446533,0.95,0.82,0.00019842513149602464
1477,0.36358442902565,0.4817862808704376,0.95,0.82,0.00019842513149602464
1478,0.36368462443351746,0.4818370044231415,0.95,0.82,0.00019842513149602464
1479,0.36394429206848145,0.4818951487541199,0.95,0.82,0.00019842513149602464
1480,0.36452487111091614,0.4818464517593384,0.95,0.82,0.00019842513149602464
1481,0.3636101484298706,0.48178714513778687,0.95,0.82,0.00019842513149602464
1482,0.3633731007575989,0.4817334711551666,0.95,0.82,0.00019842513149602464
1483,0.3649481236934662,0.48162585496902466,0.95,0.82,0.00019842513149602464
1484,0.36634618043899536,0.4815841615200043,0.95,0.82,0.00019842513149602464
1485,0.3636171221733093,0.48155221343040466,0.95,0.82,0.00019842513149602464
1486,0.3639664053916931,0.4816158711910248,0.95,0.82,0.00019842513149602464
1487,0.3648006319999695,0.4817916750907898,0.95,0.82,0.00019842513149602464
1488,0.3635086715221405,0.4819404184818268,0.95,0.82,0.00019842513149602464
1489,0.3643016815185547,0.4820587635040283,0.95,0.82,0.00019842513149602464
1490,0.3637073040008545,0.4821513891220093,0.95,0.82,0.00019842513149602464
1491,0.36384737491607666,0.4822639524936676,0.95,0.82,0.00019842513149602464
1492,0.36368533968925476,0.48235005140304565,0.95,0.82,0.00019842513149602464
1493,0.36354321241378784,0.48241597414016724,0.95,0.82,0.00019842513149602464
1494,0.3638135492801666,0.4824691414833069,0.95,0.82,0.00019842513149602464
1495,0.3647969961166382,0.4825930893421173,0.95,0.82,0.00019842513149602464
1496,0.3636764883995056,0.48269879817962646,0.95,0.82,0.00019842513149602464
1497,0.3640579581260681,0.4827622175216675,0.95,0.82,0.00019842513149602464
1498,0.36386939883232117,0.48281237483024597,0.95,0.82,0.00019842513149602464
1499,0.36313188076019287,0.4828542470932007,0.95,0.82,0.00019842513149602464
1500,0.36359912157058716,0.4828847646713257,0.95,0.82,0.00019842513149602464
1501,0.3637143671512604,0.4829144775867462,0.95,0.82,0.00019842513149602464
1502,0.36519932746887207,0.4830700159072876,0.95,0.82,0.00019842513149602464
1503,0.3641906976699829,0.4832403063774109,0.95,0.82,0.00019842513149602464
1504,0.3637496531009674,0.48340705037117004,0.95,0.82,0.00019842513149602464
1505,0.36399996280670166,0.4835883378982544,0.95,0.82,0.00019842513149602464
1506,0.36353930830955505,0.4837498366832733,0.95,0.82,0.00019842513149602464
1507,0.3636374771595001,0.4839026927947998,0.95,0.82,0.00019842513149602464
1508,0.36399346590042114,0.4840845763683319,0.95,0.82,0.00019842513149602464
1509,0.36372584104537964,0.48424389958381653,0.95,0.82,0.00019842513149602464
1510,0.3651328384876251,0.48444366455078125,0.95,0.82,0.00019842513149602464
1511,0.3627738952636719,0.48462730646133423,0.95,0.82,0.00019842513149602464
1512,0.36344265937805176,0.48479703068733215,0.95,0.82,0.00019842513149602464
1513,0.3637463450431824,0.4849214553833008,0.95,0.82,0.00019842513149602464
1514,0.3636138439178467,0.4850340187549591,0.95,0.82,0.00019842513149602464
1515,0.3636767566204071,0.4851609468460083,0.95,0.82,0.00019842513149602464
1516,0.36360955238342285,0.4852834939956665,0.95,0.82,0.00019842513149602464
1517,0.36398619413375854,0.4853958487510681,0.95,0.82,0.00019842513149602464
1518,0.3649861514568329,0.4855131506919861,0.95,0.82,0.00015749013123685888
1519,0.36649325489997864,0.4855822026729584,0.95,0.82,0.00015749013123685888
1520,0.364052951335907,0.48565319180488586,0.95,0.82,0.00015749013123685888
1521,0.3673288822174072,0.48562091588974,0.95,0.82,0.00015749013123685888
1522,0.36378994584083557,0.4854854941368103,0.95,0.82,0.00015749013123685888
1523,0.36365512013435364,0.4852839410305023,0.95,0.82,0.00015749013123685888
1524,0.36390575766563416,0.4850143492221832,0.95,0.82,0.00015749013123685888
1525,0.36369404196739197,0.484737366437912,0.95,0.82,0.00015749013123685888
1526,0.3634444773197174,0.48446178436279297,0.95,0.82,0.00015749013123685888
1527,0.3637498915195465,0.48416846990585327,0.95,0.82,0.00015749013123685888
1528,0.3635159730911255,0.483908087015152,0.95,0.83,0.00015749013123685888
1529,0.36606964468955994,0.48366841673851013,0.95,0.83,0.00015749013123685888
1530,0.3639164865016937,0.4834505021572113,0.95,0.83,0.00015749013123685888
1531,0.36420905590057373,0.48328539729118347,0.95,0.83,0.00015749013123685888
1532,0.3637049198150635,0.4831322431564331,0.95,0.83,0.00015749013123685888
1533,0.36342528462409973,0.48299816250801086,0.95,0.83,0.00015749013123685888
1534,0.3635348975658417,0.4828803539276123,0.95,0.83,0.00015749013123685888
1535,0.36378487944602966,0.4827878177165985,0.95,0.83,0.00015749013123685888
1536,0.3636414706707001,0.4827142357826233,0.95,0.83,0.00015749013123685888
1537,0.3640614449977875,0.4826699197292328,0.95,0.83,0.00015749013123685888
1538,0.3640270233154297,0.48261210322380066,0.95,0.83,0.00015749013123685888
1539,0.3637290596961975,0.4825502634048462,0.95,0.83,0.00015749013123685888
1540,0.3637784719467163,0.48250606656074524,0.95,0.83,0.00015749013123685888
1541,0.3651576340198517,0.48250624537467957,0.95,0.83,0.00015749013123685888
1542,0.3639565408229828,0.48244035243988037,0.95,0.83,0.00015749013123685888
1543,0.3640843331813812,0.48245447874069214,0.95,0.83,0.00015749013123685888
1544,0.36376941204071045,0.48247775435447693,0.95,0.83,0.00015749013123685888
1545,0.36416909098625183,0.48248642683029175,0.95,0.83,0.00015749013123685888
1546,0.363544225692749,0.48248717188835144,0.95,0.83,0.00015749013123685888
1547,0.3637083172798157,0.48250338435173035,0.95,0.83,0.00015749013123685888
1548,0.3639075756072998,0.4825255274772644,0.95,0.83,0.00015749013123685888
1549,0.36446407437324524,0.48252925276756287,0.95,0.83,0.00015749013123685888
1550,0.3649977147579193,0.48254191875457764,0.95,0.83,0.00015749013123685888
1551,0.36468687653541565,0.48253098130226135,0.95,0.83,0.00015749013123685888
1552,0.365041047334671,0.48232921957969666,0.95,0.83,0.00015749013123685888
1553,0.3641852140426636,0.48217666149139404,0.95,0.83,0.00015749013123685888
1554,0.3639189898967743,0.4819563925266266,0.95,0.83,0.00015749013123685888
1555,0.36376917362213135,0.4818323850631714,0.95,0.83,0.00015749013123685888
1556,0.364054411649704,0.481711745262146,0.95,0.83,0.00015749013123685888
1557,0.3637949228286743,0.48160892724990845,0.95,0.83,0.00015749013123685888
1558,0.3638339936733246,0.48151564598083496,0.95,0.83,0.00015749013123685888
1559,0.36357593536376953,0.48143988847732544,0.95,0.83,0.00015749013123685888
1560,0.36530962586402893,0.4815034866333008,0.95,0.83,0.00015749013123685888
1561,0.36404526233673096,0.48157811164855957,0.95,0.83,0.00015749013123685888
1562,0.363387793302536,0.4816364645957947,0.95,0.83,0.00015749013123685888
1563,0.3635481595993042,0.48171770572662354,0.95,0.83,0.00015749013123685888
1564,0.36351343989372253,0.48180609941482544,0.95,0.83,0.00015749013123685888
1565,0.36343640089035034,0.4818812906742096,0.95,0.83,0.00015749013123685888
1566,0.36353325843811035,0.4819207787513733,0.95,0.83,0.00015749013123685888
1567,0.36372557282447815,0.48195698857307434,0.95,0.83,0.00015749013123685888
1568,0.36369019746780396,0.48203545808792114,0.95,0.83,0.00015749013123685888
1569,0.3634398281574249,0.4821007549762726,0.95,0.83,0.00015749013123685888
1570,0.36401820182800293,0.482095330953598,0.95,0.83,0.00015749013123685888
1571,0.3636421859264374,0.48211097717285156,0.95,0.83,0.00015749013123685888
1572,0.36390194296836853,0.4821409285068512,0.95,0.83,0.00015749013123685888
1573,0.36380308866500854,0.4821651875972748,0.95,0.83,0.00015749013123685888
1574,0.3636133670806885,0.4822000563144684,0.95,0.83,0.00015749013123685888
1575,0.3636663556098938,0.4822414517402649,0.95,0.83,0.00015749013123685888
1576,0.36398380994796753,0.4822864234447479,0.95,0.83,0.00015749013123685888
1577,0.36382389068603516,0.48233866691589355,0.95,0.83,0.00015749013123685888
1578,0.36411961913108826,0.4823763370513916,0.95,0.83,0.00015749013123685888
1579,0.3638159930706024,0.48235365748405457,0.95,0.83,0.00015749013123685888
1580,0.36360472440719604,0.48233363032341003,0.95,0.83,0.00015749013123685888
1581,0.3641684651374817,0.4822791814804077,0.95,0.83,0.00015749013123685888
1582,0.3640528917312622,0.4822216033935547,0.95,0.83,0.00015749013123685888
1583,0.3651229441165924,0.482118159532547,0.95,0.83,0.00015749013123685888
1584,0.36347508430480957,0.48200783133506775,0.95,0.83,0.00015749013123685888
1585,0.36429598927497864,0.4818316400051117,0.95,0.83,0.00015749013123685888
1586,0.3641164302825928,0.48170557618141174,0.95,0.83,0.00015749013123685888
1587,0.36355388164520264,0.48159489035606384,0.95,0.83,0.00015749013123685888
1588,0.3634840250015259,0.4814969599246979,0.95,0.83,0.00015749013123685888
1589,0.3644142150878906,0.4814046621322632,0.95,0.83,0.00015749013123685888
1590,0.36365601420402527,0.4813452959060669,0.95,0.83,0.00015749013123685888
1591,0.36397361755371094,0.481368750333786,0.95,0.83,0.00015749013123685888
1592,0.363610178232193,0.48143282532691956,0.95,0.83,0.00015749013123685888
1593,0.3637818992137909,0.48153674602508545,0.95,0.83,0.00015749013123685888
1594,0.36364293098449707,0.4816407263278961,0.95,0.83,0.00015749013123685888
1595,0.36386191844940186,0.481756329536438,0.95,0.83,0.00015749013123685888
1596,0.3634290397167206,0.4818742871284485,0.95,0.83,0.00015749013123685888
1597,0.3636203408241272,0.4819791913032532,0.95,0.83,0.00015749013123685888
1598,0.36376696825027466,0.48208653926849365,0.95,0.83,0.00015749013123685888
1599,0.3642061650753021,0.48219481110572815,0.95,0.83,0.00015749013123685888
1600,0.3637305200099945,0.48231181502342224,0.95,0.83,0.00015749013123685888
1601,0.36384910345077515,0.4824138581752777,0.95,0.83,0.00015749013123685888
1602,0.3636394143104553,0.48250052332878113,0.95,0.83,0.00015749013123685888
1603,0.36346501111984253,0.48258113861083984,0.95,0.83,0.00015749013123685888
1604,0.36353570222854614,0.482676237821579,0.95,0.83,0.00015749013123685888
1605,0.363709419965744,0.4827466905117035,0.95,0.83,0.00015749013123685888
1606,0.36404284834861755,0.4827894866466522,0.95,0.83,0.00015749013123685888
1607,0.36349305510520935,0.482834130525589,0.95,0.83,0.00015749013123685888
1608,0.363642156124115,0.4828696846961975,0.95,0.83,0.00015749013123685888
1609,0.3633815050125122,0.48290005326271057,0.95,0.83,0.00015749013123685888
1610,0.3637503385543823,0.48294857144355774,0.95,0.83,0.00015749013123685888
1611,0.36492782831192017,0.48299098014831543,0.95,0.83,0.00015749013123685888
1612,0.3636344075202942,0.4830417335033417,0.95,0.83,0.00015749013123685888
1613,0.3635059595108032,0.4830836355686188,0.95,0.83,0.00015749013123685888
1614,0.36429598927497864,0.4831043481826782,0.95,0.83,0.00015749013123685888
1615,0.36357617378234863,0.4831430912017822,0.95,0.83,0.00015749013123685888
1616,0.36345794796943665,0.48317980766296387,0.95,0.83,0.00015749013123685888
1617,0.3634723424911499,0.48321864008903503,0.95,0.83,0.00015749013123685888
1618,0.36398735642433167,0.48328274488449097,0.95,0.83,0.00015749013123685888
1619,0.36372801661491394,0.4833465814590454,0.95,0.83,0.00012499999999999976
1620,0.3655572533607483,0.4834108352661133,0.95,0.83,0.00012499999999999976
1621,0.3637445867061615,0.483478844165802,0.95,0.83,0.00012499999999999976
1622,0.3638015687465668,0.4835382103919983,0.95,0.83,0.00012499999999999976
1623,0.3637765645980835,0.4836178123950958,0.95,0.83,0.00012499999999999976
1624,0.36390042304992676,0.4837063252925873,0.95,0.83,0.00012499999999999976
1625,0.36358779668807983,0.48377761244773865,0.95,0.82,0.00012499999999999976
1626,0.3635340929031372,0.4838402569293976,0.95,0.82,0.00012499999999999976
1627,0.36387404799461365,0.48385894298553467,0.95,0.82,0.00012499999999999976
1628,0.36446869373321533,0.4838329255580902,0.95,0.82,0.00012499999999999976
1629,0.36407336592674255,0.4837268888950348,0.95,0.82,0.00012499999999999976
1630,0.36368700861930847,0.483612984418869,0.95,0.83,0.00012499999999999976
1631,0.36369892954826355,0.4835016131401062,0.95,0.83,0.00012499999999999976
1632,0.36353927850723267,0.4833947718143463,0.95,0.83,0.00012499999999999976
1633,0.3640871047973633,0.483267605304718,0.95,0.83,0.00012499999999999976
1634,0.36374011635780334,0.4831942319869995,0.95,0.83,0.00012499999999999976
1635,0.36384227871894836,0.48314404487609863,0.95,0.83,0.00012499999999999976
1636,0.3639867305755615,0.4831516742706299,0.95,0.83,0.00012499999999999976
1637,0.36455005407333374,0.48316463828086853,0.95,0.83,0.00012499999999999976
1638,0.36445072293281555,0.48318538069725037,0.95,0.83,0.00012499999999999976
1639,0.36436927318573,0.48322033882141113,0.95,0.83,0.00012499999999999976
1640,0.36296597123146057,0.48325252532958984,0.95,0.83,0.00012499999999999976
1641,0.36371147632598877,0.48327210545539856,0.95,0.83,0.00012499999999999976
1642,0.363594651222229,0.4833012819290161,0.95,0.83,0.00012499999999999976
1643,0.36385807394981384,0.4832466244697571,0.95,0.83,0.00012499999999999976
1644,0.36365199089050293,0.4832022786140442,0.95,0.83,0.00012499999999999976
1645,0.3648878335952759,0.4831360876560211,0.95,0.83,0.00012499999999999976
1646,0.3634958267211914,0.4830748438835144,0.95,0.83,0.00012499999999999976
1647,0.3637237846851349,0.48301732540130615,0.95,0.83,0.00012499999999999976
1648,0.36398547887802124,0.48296070098876953,0.95,0.83,0.00012499999999999976
1649,0.3643573522567749,0.4829466938972473,0.95,0.83,0.00012499999999999976
1650,0.36371272802352905,0.4829449951648712,0.95,0.83,0.00012499999999999976
1651,0.3639974296092987,0.4829435348510742,0.95,0.83,0.00012499999999999976
1652,0.36403506994247437,0.48301583528518677,0.95,0.83,0.00012499999999999976
1653,0.3641544282436371,0.48305365443229675,0.95,0.82,0.00012499999999999976
1654,0.3638470768928528,0.4830664396286011,0.95,0.82,0.00012499999999999976
1655,0.363905131816864,0.4830562472343445,0.95,0.82,0.00012499999999999976
1656,0.3633900582790375,0.4830567538738251,0.95,0.82,0.00012499999999999976
1657,0.3636765778064728,0.48307839035987854,0.95,0.82,0.00012499999999999976
1658,0.36360207200050354,0.48309648036956787,0.95,0.82,0.00012499999999999976
1659,0.36375704407691956,0.4831129014492035,0.95,0.82,0.00012499999999999976
1660,0.3641504943370819,0.4831571578979492,0.95,0.82,0.00012499999999999976
1661,0.36381739377975464,0.48322972655296326,0.95,0.82,0.00012499999999999976
1662,0.3638104498386383,0.48330652713775635,0.95,0.82,0.00012499999999999976
1663,0.36389556527137756,0.4833911657333374,0.95,0.82,0.00012499999999999976
1664,0.36525189876556396,0.48342713713645935,0.95,0.82,0.00012499999999999976
1665,0.3649104833602905,0.48327499628067017,0.95,0.82,0.00012499999999999976
1666,0.3637430667877197,0.4831676781177521,0.95,0.82,0.00012499999999999976
1667,0.36342984437942505,0.483069509267807,0.95,0.82,0.00012499999999999976
1668,0.36470627784729004,0.4830869734287262,0.95,0.82,0.00012499999999999976
1669,0.36391201615333557,0.48311012983322144,0.95,0.82,0.00012499999999999976
1670,0.36375880241394043,0.48315465450286865,0.95,0.82,0.00012499999999999976
1671,0.3634612262248993,0.48318636417388916,0.95,0.82,0.00012499999999999976
1672,0.36369213461875916,0.48319166898727417,0.95,0.82,0.00012499999999999976
1673,0.3641221523284912,0.4832218289375305,0.95,0.82,0.00012499999999999976
1674,0.36339014768600464,0.48325037956237793,0.95,0.82,0.00012499999999999976
1675,0.3642016649246216,0.48327746987342834,0.95,0.82,0.00012499999999999976
1676,0.36403387784957886,0.48335590958595276,0.95,0.82,0.00012499999999999976
1677,0.36363285779953003,0.4834304749965668,0.95,0.82,0.00012499999999999976
1678,0.3636894226074219,0.48350706696510315,0.95,0.82,0.00012499999999999976
1679,0.3634159564971924,0.4835815131664276,0.95,0.82,0.00012499999999999976
1680,0.3639056086540222,0.4836443066596985,0.95,0.82,0.00012499999999999976
1681,0.3638335168361664,0.48372456431388855,0.95,0.82,0.00012499999999999976
1682,0.3635787069797516,0.48379603028297424,0.95,0.82,0.00012499999999999976
1683,0.36394059658050537,0.4838872253894806,0.95,0.82,0.00012499999999999976
1684,0.36360445618629456,0.48397037386894226,0.95,0.82,0.00012499999999999976
1685,0.36371028423309326,0.4840710461139679,0.95,0.82,0.00012499999999999976
1686,0.36402103304862976,0.48420780897140503,0.95,0.82,0.00012499999999999976
1687,0.36391761898994446,0.48432600498199463,0.95,0.82,0.00012499999999999976
1688,0.36381539702415466,0.4844299256801605,0.95,0.82,0.00012499999999999976
