,train loss,val loss,train acc,val acc,lr
0,0.6796978116035461,0.6584199666976929,0.6,0.64,0.001
1,0.6540023684501648,0.6439722180366516,0.69,0.64,0.001
2,0.6482894420623779,0.6337734460830688,0.68,0.64,0.001
3,0.6264986395835876,0.6266515851020813,0.69,0.64,0.001
4,0.6078959107398987,0.6216444969177246,0.69,0.64,0.001
5,0.5962100028991699,0.6180408596992493,0.71,0.64,0.001
6,0.5893068313598633,0.6152029037475586,0.69,0.64,0.001
7,0.5810762047767639,0.6128798127174377,0.72,0.64,0.001
8,0.5722376108169556,0.6107948422431946,0.7,0.65,0.001
9,0.5712518692016602,0.6078795790672302,0.71,0.64,0.001
10,0.5801483392715454,0.602856457233429,0.71,0.64,0.001
11,0.5541877746582031,0.5965762138366699,0.74,0.69,0.001
12,0.5506746768951416,0.5897113680839539,0.72,0.7,0.001
13,0.5537573099136353,0.5837938785552979,0.76,0.74,0.001
14,0.5376027226448059,0.5793144106864929,0.78,0.74,0.001
15,0.5472967028617859,0.5762706995010376,0.78,0.73,0.001
16,0.5334360003471375,0.5736900568008423,0.78,0.72,0.001
17,0.5376017093658447,0.5710243582725525,0.8,0.72,0.001
18,0.5309240221977234,0.5684319734573364,0.79,0.72,0.001
19,0.5250591039657593,0.5662320852279663,0.81,0.72,0.001
20,0.5227657556533813,0.5644951462745667,0.78,0.72,0.001
21,0.5151566863059998,0.5633267164230347,0.81,0.73,0.001
22,0.5166714191436768,0.564018189907074,0.8,0.72,0.001
23,0.5218503475189209,0.5684913992881775,0.81,0.71,0.001
24,0.5168259143829346,0.6827738285064697,0.78,0.62,0.001
25,0.6280425786972046,0.6729978919029236,0.66,0.64,0.001
26,0.6222401857376099,0.6730740070343018,0.69,0.64,0.001
27,0.6213251948356628,0.6730983853340149,0.69,0.64,0.001
28,0.6223105788230896,0.6731084585189819,0.69,0.64,0.001
29,0.6224895119667053,0.6731128692626953,0.69,0.64,0.001
30,0.622382640838623,0.6731140613555908,0.69,0.64,0.001
31,0.6224416494369507,0.6731136441230774,0.69,0.64,0.001
32,0.6233581304550171,0.6731126308441162,0.69,0.64,0.001
33,0.6221964955329895,0.6731106638908386,0.69,0.64,0.001
34,0.6203755736351013,0.6731066703796387,0.69,0.64,0.001
35,0.6227115988731384,0.673102617263794,0.69,0.64,0.001
36,0.6224502325057983,0.6730978488922119,0.69,0.64,0.001
37,0.6220282912254333,0.673092246055603,0.69,0.64,0.001
38,0.6225161552429199,0.6730858683586121,0.69,0.64,0.001
39,0.623246967792511,0.6730797290802002,0.69,0.64,0.001
40,0.6227005124092102,0.6730738282203674,0.69,0.64,0.001
41,0.622744083404541,0.6730673909187317,0.69,0.64,0.001
42,0.6225985288619995,0.6730599999427795,0.69,0.64,0.001
43,0.6229290962219238,0.673052966594696,0.69,0.64,0.001
44,0.6225535869598389,0.6730450987815857,0.69,0.64,0.001
45,0.6227526664733887,0.6730371117591858,0.69,0.64,0.001
46,0.623115062713623,0.6730297207832336,0.69,0.64,0.001
47,0.6221437454223633,0.6730209589004517,0.69,0.64,0.001
48,0.6223861575126648,0.6730114817619324,0.69,0.64,0.001
49,0.6224077343940735,0.6730010509490967,0.69,0.64,0.001
50,0.621962308883667,0.6729889512062073,0.69,0.64,0.001
51,0.6217677593231201,0.6729755997657776,0.69,0.64,0.001
52,0.6226131319999695,0.6729621291160583,0.69,0.64,0.001
53,0.6205772757530212,0.6729435920715332,0.69,0.64,0.001
54,0.6215488910675049,0.6729221940040588,0.69,0.64,0.001
55,0.622822105884552,0.6729013323783875,0.69,0.64,0.001
56,0.6205568909645081,0.6728735566139221,0.69,0.64,0.001
57,0.6235844492912292,0.6728478074073792,0.69,0.64,0.001
58,0.6220309734344482,0.6728206872940063,0.69,0.64,0.001
59,0.6221737861633301,0.672791600227356,0.69,0.64,0.001
60,0.6220545768737793,0.6727608442306519,0.69,0.64,0.001
61,0.6206191778182983,0.6727248430252075,0.69,0.64,0.001
62,0.6220424771308899,0.6726850867271423,0.69,0.64,0.001
63,0.6228402853012085,0.672646701335907,0.69,0.64,0.001
64,0.6204079389572144,0.6726017594337463,0.69,0.64,0.001
65,0.6197702884674072,0.6725449562072754,0.69,0.64,0.001
66,0.6215013265609741,0.6724803447723389,0.69,0.64,0.001
67,0.6225002408027649,0.6724128127098083,0.69,0.64,0.001
68,0.6212562322616577,0.6723339557647705,0.69,0.64,0.001
69,0.6194018125534058,0.6722353100776672,0.69,0.64,0.001
70,0.618146538734436,0.6721194386482239,0.69,0.64,0.001
71,0.6211802363395691,0.6719974279403687,0.69,0.64,0.001
72,0.6205294132232666,0.6718501448631287,0.69,0.64,0.001
73,0.6222876310348511,0.6716976165771484,0.69,0.64,0.001
74,0.612777829170227,0.6714745163917542,0.69,0.64,0.001
75,0.6230954527854919,0.6712689995765686,0.69,0.64,0.001
76,0.6215956211090088,0.6710436940193176,0.69,0.64,0.001
77,0.6132309436798096,0.670738697052002,0.69,0.64,0.001
78,0.6255090832710266,0.6704432964324951,0.69,0.64,0.001
79,0.611970067024231,0.6700085401535034,0.69,0.64,0.001
80,0.613135814666748,0.6694686412811279,0.69,0.64,0.001
81,0.6251406073570251,0.6688777208328247,0.68,0.64,0.001
82,0.6199829578399658,0.6681990027427673,0.69,0.64,0.001
83,0.6093495488166809,0.6673570871353149,0.7,0.64,0.001
84,0.6187406182289124,0.6663070917129517,0.69,0.64,0.001
85,0.6086828112602234,0.6647043824195862,0.69,0.64,0.001
86,0.6080963611602783,0.662453830242157,0.69,0.64,0.001
87,0.6011070013046265,0.6593562960624695,0.69,0.64,0.001
88,0.6079418659210205,0.6550752520561218,0.69,0.64,0.001
89,0.6083368062973022,0.6504275798797607,0.69,0.64,0.001
90,0.6073552370071411,0.6442129015922546,0.69,0.64,0.001
91,0.5943288207054138,0.6367191672325134,0.7,0.64,0.001
92,0.5864561200141907,0.626640796661377,0.72,0.64,0.001
93,0.5909237265586853,0.6154469847679138,0.7,0.65,0.001
94,0.5981117486953735,0.601762592792511,0.7,0.66,0.001
95,0.5773599743843079,0.5878099799156189,0.72,0.68,0.001
96,0.5686069130897522,0.5769403576850891,0.74,0.68,0.001
97,0.5581908226013184,0.5634692907333374,0.74,0.72,0.001
98,0.5583860874176025,0.5538233518600464,0.75,0.75,0.001
99,0.5815667510032654,0.54630446434021,0.7,0.75,0.001
100,0.5467751026153564,0.5376030802726746,0.78,0.8,0.001
101,0.5342015624046326,0.5315145254135132,0.74,0.8,0.001
102,0.5537657737731934,0.5254241228103638,0.78,0.83,0.001
103,0.5377451181411743,0.5219532251358032,0.77,0.83,0.001
104,0.505242109298706,0.5196971893310547,0.82,0.83,0.001
105,0.5126986503601074,0.5180053114891052,0.82,0.83,0.001
106,0.5246157646179199,0.515872597694397,0.82,0.83,0.001
107,0.5063850283622742,0.5132932066917419,0.83,0.83,0.001
108,0.5313898921012878,0.5111406445503235,0.8,0.83,0.001
109,0.5256320238113403,0.510119616985321,0.8,0.83,0.001
110,0.5290213227272034,0.5100363492965698,0.79,0.83,0.001
111,0.5028010606765747,0.5098533034324646,0.8,0.83,0.001
112,0.49176856875419617,0.5089337825775146,0.83,0.82,0.001
113,0.5104474425315857,0.5067893266677856,0.84,0.82,0.001
114,0.5077058672904968,0.5040857195854187,0.79,0.83,0.001
115,0.5128236413002014,0.5023835301399231,0.79,0.83,0.001
116,0.5063948035240173,0.5015085339546204,0.8,0.83,0.001
117,0.4850011169910431,0.5010656714439392,0.84,0.83,0.001
118,0.4850294589996338,0.5002163052558899,0.84,0.83,0.001
119,0.47410571575164795,0.4991208016872406,0.83,0.83,0.001
120,0.48780640959739685,0.49852725863456726,0.82,0.82,0.001
121,0.503411054611206,0.49801385402679443,0.8,0.82,0.001
122,0.4715505838394165,0.49631890654563904,0.85,0.81,0.001
123,0.4808639585971832,0.49472737312316895,0.81,0.81,0.001
124,0.4636296331882477,0.49368637800216675,0.88,0.82,0.001
125,0.4814664125442505,0.4927794933319092,0.85,0.81,0.001
126,0.46434372663497925,0.49232491850852966,0.86,0.8,0.001
127,0.4722471535205841,0.4917716681957245,0.85,0.8,0.001
128,0.45500972867012024,0.4912218451499939,0.9,0.81,0.001
129,0.4660343527793884,0.49137482047080994,0.86,0.8,0.001
130,0.46829622983932495,0.49124762415885925,0.9,0.8,0.001
131,0.4576760232448578,0.49054238200187683,0.88,0.79,0.001
132,0.4399000406265259,0.4896601140499115,0.9,0.81,0.001
133,0.4645193815231323,0.488364577293396,0.85,0.82,0.001
134,0.4668941795825958,0.48716872930526733,0.85,0.81,0.001
135,0.4553583264350891,0.4860503375530243,0.87,0.8,0.001
136,0.4607006311416626,0.4850529134273529,0.84,0.8,0.001
137,0.4412056803703308,0.48397666215896606,0.88,0.81,0.001
138,0.45493823289871216,0.48339077830314636,0.86,0.81,0.001
139,0.44773364067077637,0.48344314098358154,0.87,0.81,0.001
140,0.43828898668289185,0.4832572937011719,0.91,0.81,0.001
141,0.43424922227859497,0.482520192861557,0.91,0.81,0.001
142,0.42117008566856384,0.48207592964172363,0.9,0.81,0.001
143,0.43296295404434204,0.480602502822876,0.9,0.82,0.001
144,0.4268801808357239,0.47868192195892334,0.92,0.81,0.001
145,0.4507780373096466,0.47811776399612427,0.87,0.81,0.001
146,0.425155371427536,0.47790974378585815,0.91,0.81,0.001
147,0.43060383200645447,0.4777851998806,0.91,0.82,0.001
148,0.42697903513908386,0.47561177611351013,0.92,0.82,0.001
149,0.4364662170410156,0.47397086024284363,0.9,0.82,0.001
150,0.4250442385673523,0.47328653931617737,0.9,0.83,0.001
151,0.44557735323905945,0.47304102778434753,0.87,0.84,0.001
152,0.42789173126220703,0.47250694036483765,0.9,0.84,0.001
153,0.43417423963546753,0.4718388020992279,0.89,0.84,0.001
154,0.4242585301399231,0.4715660512447357,0.91,0.83,0.001
155,0.4156005382537842,0.47076842188835144,0.93,0.83,0.001
156,0.4264306128025055,0.469212144613266,0.9,0.86,0.001
157,0.4090418517589569,0.4676777124404907,0.96,0.84,0.001
158,0.4232567250728607,0.4671618342399597,0.93,0.85,0.001
159,0.4153707027435303,0.46652334928512573,0.93,0.84,0.001
160,0.3999970257282257,0.4659663438796997,0.95,0.85,0.001
161,0.406231164932251,0.4669339060783386,0.94,0.85,0.001
162,0.4146759808063507,0.46647366881370544,0.93,0.85,0.001
163,0.411092072725296,0.46592026948928833,0.94,0.84,0.001
164,0.40518900752067566,0.46535220742225647,0.92,0.83,0.001
165,0.40720289945602417,0.4643688201904297,0.94,0.85,0.001
166,0.4027112126350403,0.4633316397666931,0.96,0.85,0.001
167,0.40795832872390747,0.46310028433799744,0.92,0.85,0.001
168,0.40657544136047363,0.46245115995407104,0.93,0.85,0.001
169,0.39600464701652527,0.46175020933151245,0.95,0.85,0.001
170,0.40119093656539917,0.4621475636959076,0.97,0.85,0.001
171,0.40088874101638794,0.4607681930065155,0.95,0.86,0.001
172,0.3955346643924713,0.4603591859340668,0.94,0.84,0.001
173,0.4023730456829071,0.46022555232048035,0.94,0.85,0.001
174,0.3953618109226227,0.45829564332962036,0.95,0.86,0.001
175,0.3920286297798157,0.4583761692047119,0.96,0.85,0.001
176,0.3938957154750824,0.45787033438682556,0.96,0.85,0.001
177,0.38609516620635986,0.4569260776042938,0.97,0.86,0.001
178,0.39271414279937744,0.4569401443004608,0.96,0.86,0.001
179,0.3949398398399353,0.455704003572464,0.94,0.87,0.001
180,0.388990581035614,0.4575139582157135,0.97,0.86,0.001
181,0.3911449909210205,0.4539571702480316,0.97,0.87,0.001
182,0.3831319808959961,0.4533633291721344,0.97,0.84,0.001
183,0.3881664276123047,0.45292922854423523,0.97,0.84,0.001
184,0.381911039352417,0.44958963990211487,0.97,0.87,0.001
185,0.3817000687122345,0.4490431249141693,0.97,0.86,0.001
186,0.3853711783885956,0.4488164186477661,0.97,0.86,0.001
187,0.3817024528980255,0.449911504983902,0.96,0.85,0.001
188,0.375217080116272,0.447874516248703,0.97,0.88,0.001
189,0.3795456290245056,0.448630690574646,0.96,0.86,0.001
190,0.3746069371700287,0.4489383399486542,0.97,0.85,0.001
191,0.3789898753166199,0.4492357671260834,0.96,0.86,0.001
192,0.37625548243522644,0.4491328299045563,0.96,0.85,0.001
193,0.3781414031982422,0.4454895853996277,0.97,0.87,0.001
194,0.3721504509449005,0.44255733489990234,0.97,0.88,0.001
195,0.3757217526435852,0.4451804459095001,0.97,0.86,0.001
196,0.37662166357040405,0.4448228180408478,0.95,0.87,0.001
197,0.37446433305740356,0.4480392038822174,0.96,0.87,0.001
198,0.3763342797756195,0.44330430030822754,0.97,0.87,0.001
199,0.37305814027786255,0.44145599007606506,0.97,0.88,0.001
200,0.37033411860466003,0.4424634277820587,0.97,0.87,0.001
201,0.37874531745910645,0.44441354274749756,0.95,0.86,0.001
202,0.3762962222099304,0.4478951394557953,0.96,0.87,0.001
203,0.37307557463645935,0.44160693883895874,0.97,0.88,0.001
204,0.3677246570587158,0.44345608353614807,0.97,0.86,0.001
205,0.3690023124217987,0.4449124038219452,0.97,0.86,0.001
206,0.36994385719299316,0.44868388772010803,0.97,0.83,0.001
207,0.364638090133667,0.4467191696166992,0.97,0.86,0.001
208,0.36818990111351013,0.43798038363456726,0.97,0.87,0.001
209,0.36280688643455505,0.4332958161830902,0.97,0.9,0.001
210,0.36257290840148926,0.43492135405540466,0.97,0.89,0.001
211,0.3650965988636017,0.4362045228481293,0.98,0.88,0.001
212,0.3640775680541992,0.4382442235946655,0.98,0.87,0.001
213,0.3602571487426758,0.43721944093704224,0.97,0.88,0.001
214,0.36011627316474915,0.435403972864151,0.98,0.88,0.001
215,0.36086806654930115,0.436133474111557,0.98,0.88,0.001
216,0.3627500832080841,0.4393979012966156,0.98,0.86,0.001
217,0.35916632413864136,0.44068917632102966,0.98,0.87,0.001
218,0.36386704444885254,0.4380420744419098,0.98,0.87,0.001
219,0.3574333190917969,0.43507155776023865,0.98,0.88,0.001
220,0.35851651430130005,0.4351288676261902,0.97,0.88,0.001
221,0.3565114736557007,0.4358397424221039,0.98,0.88,0.001
222,0.3572390079498291,0.43589115142822266,0.98,0.88,0.001
223,0.35898539423942566,0.4363139867782593,0.98,0.88,0.001
224,0.3586077094078064,0.439035028219223,0.97,0.86,0.001
225,0.35310789942741394,0.4384476840496063,0.98,0.87,0.001
226,0.35291600227355957,0.4333759546279907,0.98,0.88,0.001
227,0.3553684651851654,0.4321821928024292,0.98,0.89,0.001
228,0.35321491956710815,0.432190477848053,0.98,0.89,0.001
229,0.3548203706741333,0.43223056197166443,0.98,0.89,0.001
230,0.35452941060066223,0.43220260739326477,0.98,0.89,0.001
231,0.35238146781921387,0.4324803948402405,0.98,0.89,0.001
232,0.35578417778015137,0.4356040060520172,0.98,0.87,0.001
233,0.35299059748649597,0.43508216738700867,0.98,0.88,0.001
234,0.3553512990474701,0.4325837790966034,0.98,0.89,0.001
235,0.35194945335388184,0.431020051240921,0.98,0.89,0.001
236,0.35124698281288147,0.43246620893478394,0.98,0.88,0.001
237,0.3519437909126282,0.4347662329673767,0.98,0.88,0.001
238,0.34978413581848145,0.43345165252685547,0.98,0.89,0.001
239,0.35008522868156433,0.4299343228340149,0.98,0.89,0.001
240,0.35070666670799255,0.4296390414237976,0.98,0.89,0.001
241,0.3484266698360443,0.4303834140300751,0.98,0.89,0.001
242,0.3489738702774048,0.4326389729976654,0.98,0.89,0.001
243,0.3491850793361664,0.43163639307022095,0.98,0.89,0.001
244,0.3504405617713928,0.43182888627052307,0.98,0.89,0.001
245,0.34771597385406494,0.43171772360801697,0.98,0.89,0.001
246,0.3472592234611511,0.42919325828552246,0.98,0.89,0.001
247,0.3473198711872101,0.4299534559249878,0.98,0.88,0.001
248,0.3485080599784851,0.4332110285758972,0.98,0.88,0.001
249,0.34761932492256165,0.43151557445526123,0.98,0.89,0.001
250,0.34773704409599304,0.4273308217525482,0.98,0.89,0.001
251,0.34758591651916504,0.4264878034591675,0.98,0.89,0.001
252,0.34730997681617737,0.42752882838249207,0.98,0.89,0.001
253,0.3469041585922241,0.4271535575389862,0.98,0.89,0.001
254,0.34616270661354065,0.4273317754268646,0.98,0.89,0.001
255,0.3480384349822998,0.42707228660583496,0.98,0.89,0.001
256,0.34675806760787964,0.4292876422405243,0.98,0.89,0.001
257,0.3461739420890808,0.42942875623703003,0.98,0.89,0.001
258,0.34688660502433777,0.4259207546710968,0.98,0.89,0.001
259,0.3463882505893707,0.4262414574623108,0.98,0.89,0.001
260,0.34223437309265137,0.4280399680137634,0.98,0.88,0.001
261,0.34462666511535645,0.4301982820034027,0.98,0.88,0.001
262,0.3445916771888733,0.4256882965564728,0.98,0.89,0.001
263,0.34528082609176636,0.4223143756389618,0.98,0.9,0.001
264,0.34435057640075684,0.42508333921432495,0.98,0.91,0.001
265,0.3443355858325958,0.4275663495063782,0.98,0.89,0.001
266,0.34425821900367737,0.4316665530204773,0.98,0.9,0.001
267,0.34408867359161377,0.4230297803878784,0.98,0.89,0.001
268,0.34429001808166504,0.42132216691970825,0.98,0.91,0.001
269,0.3430401682853699,0.4245801568031311,0.98,0.9,0.001
270,0.34188327193260193,0.4282485842704773,0.98,0.88,0.001
271,0.3400554955005646,0.4243394732475281,0.99,0.89,0.001
272,0.3421989679336548,0.4194331467151642,0.98,0.91,0.001
273,0.3397339880466461,0.42006272077560425,0.99,0.91,0.001
274,0.3421753942966461,0.4226641058921814,0.98,0.9,0.001
275,0.3396638035774231,0.42475345730781555,0.99,0.9,0.001
276,0.3379412889480591,0.4226987957954407,0.99,0.9,0.001
277,0.34023240208625793,0.420249342918396,0.99,0.9,0.001
278,0.33923378586769104,0.4240853488445282,0.99,0.9,0.001
279,0.3382122814655304,0.4254109561443329,0.99,0.89,0.001
280,0.3378225564956665,0.4222041070461273,0.99,0.9,0.001
281,0.33927878737449646,0.41892245411872864,0.99,0.91,0.001
282,0.33742251992225647,0.41963034868240356,0.99,0.91,0.001
283,0.33772143721580505,0.42224588990211487,0.99,0.9,0.001
284,0.3357602655887604,0.42523884773254395,0.99,0.9,0.001
285,0.33709248900413513,0.4222923517227173,0.99,0.9,0.001
286,0.3363930583000183,0.4182652235031128,0.99,0.9,0.001
287,0.33633753657341003,0.41720595955848694,0.99,0.9,0.001
288,0.3359324634075165,0.4202549457550049,0.99,0.9,0.001
289,0.33534735441207886,0.4196021556854248,0.99,0.9,0.001
290,0.3349069356918335,0.4180498421192169,0.99,0.91,0.001
291,0.33548808097839355,0.4192203879356384,0.99,0.9,0.001
292,0.3360894024372101,0.42108669877052307,0.99,0.91,0.001
293,0.33447375893592834,0.42165499925613403,0.99,0.91,0.001
294,0.33544594049453735,0.41952624917030334,0.99,0.9,0.001
295,0.33514347672462463,0.4179179072380066,0.99,0.9,0.001
296,0.3347053825855255,0.4173726737499237,0.99,0.9,0.001
297,0.33490806818008423,0.4180622100830078,0.99,0.9,0.001
298,0.3349044919013977,0.41766121983528137,0.99,0.9,0.001
299,0.33423152565956116,0.4172002077102661,0.99,0.9,0.001
300,0.33427363634109497,0.4178617000579834,0.99,0.9,0.001
301,0.33300507068634033,0.42147067189216614,0.99,0.9,0.001
302,0.3342737853527069,0.4185871183872223,0.99,0.9,0.001
303,0.3328405022621155,0.4163745045661926,0.99,0.9,0.001
304,0.3333970010280609,0.4158790111541748,0.99,0.91,0.001
305,0.33334365487098694,0.41572630405426025,0.99,0.91,0.001
306,0.3321910798549652,0.41736263036727905,0.99,0.9,0.001
307,0.3330574035644531,0.41946616768836975,0.99,0.9,0.001
308,0.33200743794441223,0.41874146461486816,0.99,0.9,0.001
309,0.33208224177360535,0.4179704189300537,0.99,0.9,0.001
310,0.33143478631973267,0.41702815890312195,0.99,0.9,0.001
311,0.3311556577682495,0.416375994682312,0.99,0.9,0.001
312,0.33200228214263916,0.4166734218597412,0.99,0.9,0.001
313,0.33154982328414917,0.41572776436805725,0.99,0.9,0.001
314,0.3315112590789795,0.4144984483718872,0.99,0.91,0.001
315,0.33131328225135803,0.41504767537117004,0.99,0.91,0.001
316,0.3311912417411804,0.4179014265537262,0.99,0.9,0.001
317,0.33194130659103394,0.41888684034347534,0.99,0.9,0.001
318,0.33107325434684753,0.4182272255420685,0.99,0.9,0.001
319,0.3315335214138031,0.4166676998138428,0.99,0.9,0.001
320,0.33017730712890625,0.41859516501426697,0.99,0.9,0.001
321,0.3305833041667938,0.41755539178848267,0.99,0.9,0.001
322,0.330913245677948,0.4142144024372101,0.99,0.91,0.001
323,0.3306196630001068,0.4138724207878113,0.99,0.91,0.001
324,0.33029457926750183,0.4155024588108063,0.99,0.9,0.001
325,0.33017829060554504,0.41618484258651733,0.99,0.9,0.001
326,0.3297354578971863,0.4166387617588043,0.99,0.9,0.001
327,0.3297175168991089,0.41468119621276855,0.99,0.9,0.001
328,0.3293393850326538,0.4142230153083801,0.99,0.9,0.001
329,0.3292948603630066,0.4147520065307617,0.99,0.9,0.001
330,0.3291708827018738,0.4144147038459778,0.99,0.9,0.001
331,0.33013400435447693,0.41438329219818115,0.99,0.9,0.001
332,0.3285681903362274,0.41478267312049866,0.99,0.9,0.001
333,0.32946446537971497,0.41619807481765747,0.99,0.9,0.001
334,0.3299092948436737,0.41572967171669006,0.99,0.9,0.001
335,0.3286098837852478,0.41643306612968445,0.99,0.9,0.001
336,0.3290605843067169,0.4157785475254059,0.99,0.9,0.001
337,0.32933056354522705,0.41303324699401855,0.99,0.9,0.001
338,0.32927271723747253,0.4120160639286041,0.99,0.9,0.001
339,0.3294770419597626,0.4114132821559906,0.99,0.91,0.001
340,0.32889485359191895,0.41247236728668213,0.99,0.91,0.001
341,0.32868942618370056,0.41264137625694275,0.99,0.91,0.001
342,0.32887688279151917,0.4129779040813446,0.99,0.91,0.001
343,0.32851359248161316,0.4163130521774292,0.99,0.9,0.001
344,0.32903411984443665,0.4200587570667267,0.99,0.89,0.001
345,0.32810962200164795,0.4179989695549011,0.99,0.9,0.001
346,0.32878589630126953,0.41386669874191284,0.99,0.9,0.001
347,0.32845455408096313,0.4130076467990875,0.99,0.9,0.001
348,0.32844144105911255,0.41350650787353516,0.99,0.9,0.001
349,0.32850563526153564,0.41513264179229736,0.99,0.9,0.001
350,0.32829293608665466,0.41319435834884644,0.99,0.9,0.001
351,0.3287486135959625,0.41131874918937683,0.99,0.91,0.001
352,0.3284964859485626,0.41318580508232117,0.99,0.9,0.001
353,0.32831549644470215,0.41639769077301025,0.99,0.9,0.001
354,0.3284887969493866,0.4180370271205902,0.99,0.9,0.001
355,0.3279378116130829,0.4146694242954254,0.99,0.9,0.001
356,0.32800713181495667,0.41190123558044434,0.99,0.9,0.001
357,0.32791846990585327,0.4112829566001892,0.99,0.91,0.001
358,0.32821041345596313,0.4128100275993347,0.99,0.9,0.001
359,0.3278695344924927,0.4126149117946625,0.99,0.9,0.001
360,0.3275755047798157,0.41367462277412415,0.99,0.9,0.001
361,0.32789379358291626,0.41222789883613586,0.99,0.91,0.001
362,0.32785022258758545,0.4114218056201935,0.99,0.91,0.001
363,0.3278937041759491,0.41366225481033325,0.99,0.9,0.001
364,0.32765236496925354,0.41432440280914307,0.99,0.9,0.001
365,0.3276856243610382,0.4128687381744385,0.99,0.9,0.001
366,0.32783231139183044,0.41218772530555725,0.99,0.9,0.001
367,0.32744717597961426,0.41326820850372314,0.99,0.9,0.001
368,0.3272935152053833,0.4123585820198059,0.99,0.9,0.001
369,0.3273259699344635,0.4118594229221344,0.99,0.9,0.001
370,0.327470600605011,0.41079360246658325,0.99,0.91,0.001
371,0.32749471068382263,0.4112619459629059,0.99,0.91,0.001
372,0.327082097530365,0.41322439908981323,0.99,0.9,0.001
373,0.3271216154098511,0.4136280417442322,0.99,0.9,0.001
374,0.32743552327156067,0.41478392481803894,0.99,0.9,0.001
375,0.3275030553340912,0.4131631851196289,0.99,0.9,0.001
376,0.3270643651485443,0.4125012159347534,0.99,0.9,0.001
377,0.32752129435539246,0.41144752502441406,0.99,0.9,0.001
378,0.3269069790840149,0.41173413395881653,0.99,0.9,0.001
379,0.3272751271724701,0.41350704431533813,0.99,0.9,0.001
380,0.32729122042655945,0.412314772605896,0.99,0.91,0.001
381,0.32719656825065613,0.4095020294189453,0.99,0.91,0.001
382,0.3268647789955139,0.4110010266304016,0.99,0.91,0.001
383,0.32702431082725525,0.4143289625644684,0.99,0.9,0.001
384,0.3266233801841736,0.4149438142776489,0.99,0.9,0.001
385,0.32674112915992737,0.4127941131591797,0.99,0.9,0.001
386,0.3267759680747986,0.41005003452301025,0.99,0.91,0.001
387,0.32688021659851074,0.40984833240509033,0.99,0.91,0.001
388,0.32648158073425293,0.41052311658859253,0.99,0.9,0.001
389,0.32687827944755554,0.4126652777194977,0.99,0.9,0.001
390,0.32683661580085754,0.41313961148262024,0.99,0.9,0.001
391,0.32678738236427307,0.4120423197746277,0.99,0.9,0.001
392,0.3266054391860962,0.41084402799606323,0.99,0.9,0.001
393,0.32670366764068604,0.4110032320022583,0.99,0.9,0.001
394,0.32675036787986755,0.4121633768081665,0.99,0.9,0.001
395,0.3266693949699402,0.41467753052711487,0.99,0.9,0.001
396,0.326595276594162,0.4123193323612213,0.99,0.9,0.001
397,0.3266897201538086,0.40872645378112793,0.99,0.91,0.001
398,0.3265198767185211,0.4087204039096832,0.99,0.91,0.001
399,0.32662147283554077,0.40932950377464294,0.99,0.91,0.001
400,0.32667213678359985,0.4117783308029175,0.99,0.9,0.001
401,0.32678335905075073,0.41243863105773926,0.99,0.9,0.001
402,0.32654789090156555,0.41279053688049316,0.99,0.9,0.001
403,0.32673680782318115,0.4107801914215088,0.99,0.9,0.001
404,0.3264800012111664,0.41002437472343445,0.99,0.91,0.001
405,0.32631808519363403,0.4107554256916046,0.99,0.9,0.001
406,0.3262316882610321,0.4118974804878235,0.99,0.9,0.001
407,0.326384574174881,0.4114219546318054,0.99,0.9,0.001
408,0.3264010548591614,0.40980198979377747,0.99,0.91,0.001
409,0.32629990577697754,0.40901410579681396,0.99,0.91,0.001
410,0.3265051245689392,0.4094315469264984,0.99,0.91,0.001
411,0.3262070417404175,0.41175878047943115,0.99,0.9,0.001
412,0.3261164724826813,0.4143754243850708,0.99,0.9,0.001
413,0.3266017436981201,0.4119115173816681,0.99,0.9,0.001
414,0.32635441422462463,0.40808990597724915,0.99,0.91,0.001
415,0.32621780037879944,0.4076675474643707,0.99,0.91,0.001
416,0.3260152339935303,0.40887123346328735,0.99,0.91,0.001
417,0.3261984586715698,0.41195404529571533,0.99,0.9,0.001
418,0.32613563537597656,0.4121376872062683,0.99,0.9,0.001
419,0.3256531059741974,0.4110165536403656,0.99,0.9,0.001
420,0.32589349150657654,0.40964770317077637,0.99,0.91,0.001
421,0.3259996473789215,0.4093450903892517,0.99,0.9,0.001
422,0.32612791657447815,0.41032731533050537,0.99,0.9,0.001
423,0.3259677588939667,0.41180363297462463,0.99,0.9,0.001
424,0.3262663781642914,0.4103381633758545,0.99,0.91,0.001
425,0.3261927366256714,0.4084784686565399,0.99,0.91,0.001
426,0.3258185088634491,0.40829241275787354,0.99,0.91,0.001
427,0.3260479271411896,0.4111059606075287,0.99,0.9,0.001
428,0.3259968161582947,0.41232818365097046,0.99,0.9,0.001
429,0.3257344961166382,0.4111326336860657,0.99,0.9,0.001
430,0.32586991786956787,0.4097544848918915,0.99,0.9,0.001
431,0.3260127604007721,0.4086955189704895,0.99,0.91,0.001
432,0.3259710371494293,0.4109250009059906,0.99,0.9,0.001
433,0.32584434747695923,0.4115346670150757,0.99,0.9,0.001
434,0.32594308257102966,0.41089510917663574,0.99,0.9,0.001
435,0.3256135582923889,0.4099239408969879,0.99,0.91,0.001
436,0.32576504349708557,0.4091438055038452,0.99,0.91,0.001
437,0.32581979036331177,0.40836101770401,0.99,0.91,0.001
438,0.3255426287651062,0.40868523716926575,0.99,0.91,0.001
439,0.32553043961524963,0.40897905826568604,0.99,0.91,0.001
440,0.325674444437027,0.4095188081264496,0.99,0.9,0.001
441,0.32563328742980957,0.4091494381427765,0.99,0.91,0.001
442,0.3256717324256897,0.40846848487854004,0.99,0.91,0.001
443,0.3254810571670532,0.4082660675048828,0.99,0.91,0.001
444,0.32551562786102295,0.4081149995326996,0.99,0.91,0.001
445,0.3255910575389862,0.40915626287460327,0.99,0.91,0.001
446,0.32613009214401245,0.4127062261104584,0.99,0.9,0.001
447,0.325534850358963,0.41167888045310974,0.99,0.9,0.001
448,0.3255728483200073,0.4090942442417145,0.99,0.9,0.001
449,0.32551997900009155,0.4081653654575348,0.99,0.91,0.001
450,0.3257216215133667,0.40991780161857605,0.99,0.9,0.001
451,0.32536014914512634,0.41007450222969055,0.99,0.9,0.001
452,0.325639545917511,0.40861743688583374,0.99,0.91,0.001
453,0.325562059879303,0.4073679447174072,0.99,0.91,0.001
454,0.3255399763584137,0.40717002749443054,0.99,0.91,0.001
455,0.32540664076805115,0.40733397006988525,0.99,0.91,0.001
456,0.3254726529121399,0.4082019031047821,0.99,0.91,0.001
457,0.3254646360874176,0.40909695625305176,0.99,0.91,0.001
458,0.3254067599773407,0.4104763865470886,0.99,0.9,0.001
459,0.32549166679382324,0.4108954966068268,0.99,0.9,0.001
460,0.32537540793418884,0.41008567810058594,0.99,0.9,0.001
461,0.3255263566970825,0.4078364968299866,0.99,0.91,0.001
462,0.32537782192230225,0.40732476115226746,0.99,0.91,0.001
463,0.3252767324447632,0.40727534890174866,0.99,0.91,0.001
464,0.3252560496330261,0.4076725244522095,0.99,0.91,0.001
465,0.3252699673175812,0.40861400961875916,0.99,0.91,0.001
466,0.3252791464328766,0.40943947434425354,0.99,0.91,0.001
467,0.32538676261901855,0.4104115962982178,0.99,0.9,0.001
468,0.32533198595046997,0.40954262018203735,0.99,0.9,0.001
469,0.3251621127128601,0.4098198711872101,0.99,0.9,0.001
470,0.32519567012786865,0.4089384377002716,0.99,0.9,0.001
471,0.32516616582870483,0.40856337547302246,0.99,0.9,0.001
472,0.3251272141933441,0.40830370783805847,0.99,0.91,0.001
473,0.3250596225261688,0.4082106053829193,0.99,0.91,0.001
474,0.3252061605453491,0.40780502557754517,0.99,0.91,0.001
475,0.32533276081085205,0.4072836935520172,0.99,0.91,0.001
476,0.3252732753753662,0.40701374411582947,0.99,0.91,0.001
477,0.32523977756500244,0.4076102077960968,0.99,0.91,0.001
478,0.32501164078712463,0.4083985388278961,0.99,0.91,0.001
479,0.32504573464393616,0.41001754999160767,0.99,0.9,0.001
480,0.32504338026046753,0.41093918681144714,0.99,0.9,0.001
481,0.32516729831695557,0.4109848737716675,0.99,0.9,0.001
482,0.32503676414489746,0.4099298417568207,0.99,0.9,0.001
483,0.3251754641532898,0.40814876556396484,0.99,0.91,0.001
484,0.32504841685295105,0.4071216881275177,0.99,0.91,0.001
485,0.32510605454444885,0.4072311520576477,0.99,0.91,0.001
486,0.3250943124294281,0.408253937959671,0.99,0.91,0.001
487,0.3249720633029938,0.40935370326042175,0.99,0.91,0.001
488,0.3250060975551605,0.4090167284011841,0.99,0.91,0.001
489,0.32508495450019836,0.40846043825149536,0.99,0.91,0.001
490,0.32507064938545227,0.4084632396697998,0.99,0.91,0.001
491,0.324947714805603,0.40835243463516235,0.99,0.91,0.001
492,0.3250633478164673,0.41007426381111145,0.99,0.9,0.001
493,0.3249860107898712,0.4109113812446594,0.99,0.9,0.001
494,0.32487720251083374,0.4090993106365204,0.99,0.9,0.001
495,0.3248691260814667,0.40850722789764404,0.99,0.9,0.001
496,0.32505330443382263,0.40807923674583435,0.99,0.91,0.001
497,0.3250040113925934,0.40691184997558594,0.99,0.91,0.001
498,0.3250407874584198,0.40705081820487976,0.99,0.91,0.001
499,0.3248530328273773,0.4069221019744873,0.99,0.91,0.001
500,0.32486793398857117,0.40760207176208496,0.99,0.91,0.001
501,0.32483941316604614,0.40798789262771606,0.99,0.91,0.001
502,0.324940025806427,0.4089154303073883,0.99,0.91,0.001
503,0.32471492886543274,0.4086097478866577,0.99,0.91,0.001
504,0.3250342309474945,0.4091517925262451,0.99,0.9,0.001
505,0.3248577415943146,0.40887534618377686,0.99,0.9,0.001
506,0.3248053789138794,0.408713161945343,0.99,0.91,0.001
507,0.324930876493454,0.40786755084991455,0.99,0.91,0.001
508,0.3248303532600403,0.4068392813205719,0.99,0.91,0.001
509,0.32482588291168213,0.40637606382369995,0.99,0.91,0.001
510,0.3247452676296234,0.40699729323387146,0.99,0.91,0.001
511,0.3249441385269165,0.40742385387420654,0.99,0.91,0.001
512,0.32481929659843445,0.4073149561882019,0.99,0.91,0.001
513,0.3247672915458679,0.4081420600414276,0.99,0.91,0.001
514,0.3247468173503876,0.4098062515258789,0.99,0.9,0.001
515,0.32470884919166565,0.4095834493637085,0.99,0.9,0.001
516,0.3247460424900055,0.4088418185710907,0.99,0.9,0.001
517,0.32480770349502563,0.4072731137275696,0.99,0.91,0.001
518,0.32478252053260803,0.4069964289665222,0.99,0.91,0.001
519,0.32487422227859497,0.4067526161670685,0.99,0.91,0.001
520,0.3247406482696533,0.40713831782341003,0.99,0.91,0.001
521,0.32478904724121094,0.40731897950172424,0.99,0.91,0.001
522,0.32490700483322144,0.4075096547603607,0.99,0.91,0.001
523,0.3247297406196594,0.4084128141403198,0.99,0.91,0.001
524,0.32488295435905457,0.4077967405319214,0.99,0.91,0.001
525,0.3246726095676422,0.40710657835006714,0.99,0.91,0.001
526,0.32478630542755127,0.4071321189403534,0.99,0.91,0.001
527,0.3247217535972595,0.40775978565216064,0.99,0.91,0.001
528,0.32465630769729614,0.407413125038147,0.99,0.91,0.001
529,0.3246694803237915,0.40696361660957336,0.99,0.91,0.001
530,0.3246702551841736,0.40643826127052307,0.99,0.91,0.001
531,0.3246476352214813,0.40684622526168823,0.99,0.91,0.001
532,0.32465270161628723,0.40732207894325256,0.99,0.91,0.001
533,0.32467252016067505,0.40693432092666626,0.99,0.91,0.001
534,0.3246479034423828,0.4076099097728729,0.99,0.91,0.001
535,0.3245863616466522,0.4071854054927826,0.99,0.91,0.001
536,0.3246195316314697,0.40866902470588684,0.99,0.9,0.001
537,0.324640154838562,0.4095582664012909,0.99,0.9,0.001
538,0.32467401027679443,0.40821659564971924,0.99,0.91,0.001
539,0.32458794116973877,0.4062458872795105,0.99,0.91,0.001
540,0.3247203826904297,0.4054786264896393,0.99,0.91,0.001
541,0.324637234210968,0.40611618757247925,0.99,0.91,0.001
542,0.32465678453445435,0.4074700176715851,0.99,0.91,0.001
543,0.3245500326156616,0.4072408974170685,0.99,0.91,0.001
544,0.3245120346546173,0.4070800840854645,0.99,0.91,0.001
545,0.3245265483856201,0.40656808018684387,0.99,0.91,0.001
546,0.32460567355155945,0.4065760374069214,0.99,0.91,0.001
547,0.3246472477912903,0.4080565273761749,0.99,0.91,0.001
548,0.3245331645011902,0.4088517129421234,0.99,0.9,0.001
549,0.3245663344860077,0.4091009795665741,0.99,0.9,0.001
550,0.324646532535553,0.4085231125354767,0.99,0.9,0.001
551,0.32463178038597107,0.4069223701953888,0.99,0.91,0.001
552,0.3245393633842468,0.4047188460826874,0.99,0.91,0.001
553,0.3246954083442688,0.4040067195892334,0.99,0.92,0.001
554,0.32454827427864075,0.405007541179657,0.99,0.92,0.001
555,0.32450687885284424,0.40609970688819885,0.99,0.92,0.001
556,0.32450637221336365,0.40707331895828247,0.99,0.91,0.001
557,0.32458391785621643,0.40753674507141113,0.99,0.91,0.001
558,0.324473112821579,0.40639805793762207,0.99,0.91,0.001
559,0.3244670629501343,0.40582361817359924,0.99,0.91,0.001
560,0.32447105646133423,0.4060782492160797,0.99,0.91,0.001
561,0.3245047330856323,0.4070050120353699,0.99,0.91,0.001
562,0.3244214951992035,0.4075854420661926,0.99,0.91,0.001
563,0.324591726064682,0.4088928997516632,0.99,0.91,0.001
564,0.32451871037483215,0.40801990032196045,0.99,0.91,0.001
565,0.3244635760784149,0.4067990183830261,0.99,0.91,0.001
566,0.3244685232639313,0.4055953621864319,0.99,0.91,0.001
567,0.32452166080474854,0.40572589635849,0.99,0.91,0.001
568,0.3245328664779663,0.40587443113327026,0.99,0.91,0.001
569,0.32439833879470825,0.4061692953109741,0.99,0.91,0.001
570,0.3244660198688507,0.40618887543678284,0.99,0.91,0.001
571,0.324462890625,0.4056614935398102,0.99,0.91,0.001
572,0.3243894577026367,0.4053975045681,0.99,0.91,0.001
573,0.32432451844215393,0.4053633213043213,0.99,0.91,0.001
574,0.32440078258514404,0.40613308548927307,0.99,0.91,0.001
575,0.3244669437408447,0.40621840953826904,0.99,0.91,0.001
576,0.32439181208610535,0.40676411986351013,0.99,0.91,0.001
577,0.32438477873802185,0.4064432382583618,0.99,0.91,0.001
578,0.32442620396614075,0.4066264033317566,0.99,0.91,0.001
579,0.3243836462497711,0.40653565526008606,0.99,0.91,0.001
580,0.3243356943130493,0.4071255922317505,0.99,0.91,0.001
581,0.3245091140270233,0.4076775312423706,0.99,0.91,0.001
582,0.32441696524620056,0.40685486793518066,0.99,0.91,0.001
583,0.32434532046318054,0.4055388271808624,0.99,0.91,0.001
584,0.3243578374385834,0.4053381383419037,0.99,0.91,0.001
585,0.3243713080883026,0.40594062209129333,0.99,0.91,0.001
586,0.3243890106678009,0.4063930809497833,0.99,0.91,0.001
587,0.32433071732521057,0.40673309564590454,0.99,0.91,0.001
588,0.3242679238319397,0.40680167078971863,0.99,0.91,0.001
589,0.3244010806083679,0.4059789180755615,0.99,0.91,0.001
590,0.3243161141872406,0.40533557534217834,0.99,0.91,0.001
591,0.32436898350715637,0.40590131282806396,0.99,0.91,0.001
592,0.3242838382720947,0.4063069224357605,0.99,0.91,0.001
593,0.3243647813796997,0.4074357748031616,0.99,0.91,0.001
594,0.32437920570373535,0.40725404024124146,0.99,0.91,0.001
595,0.32430633902549744,0.4068807363510132,0.99,0.91,0.001
596,0.324294775724411,0.406272292137146,0.99,0.91,0.001
597,0.3243291974067688,0.40539419651031494,0.99,0.91,0.001
598,0.32429373264312744,0.4058636426925659,0.99,0.91,0.001
599,0.324335515499115,0.40667855739593506,0.99,0.91,0.001
600,0.3243248760700226,0.40613406896591187,0.99,0.91,0.001
601,0.3243315815925598,0.40571871399879456,0.99,0.91,0.001
602,0.32432642579078674,0.40574169158935547,0.99,0.91,0.001
603,0.3242603540420532,0.4060625731945038,0.99,0.91,0.001
604,0.3242846727371216,0.40537211298942566,0.99,0.91,0.001
605,0.3242150545120239,0.4054630994796753,0.99,0.91,0.001
606,0.32430970668792725,0.4054381847381592,0.99,0.91,0.001
607,0.324318528175354,0.40595710277557373,0.99,0.91,0.001
608,0.3242906332015991,0.4057113230228424,0.99,0.91,0.001
609,0.32418131828308105,0.40538913011550903,0.99,0.91,0.001
610,0.3242402672767639,0.40572959184646606,0.99,0.91,0.001
611,0.3242184519767761,0.4061138927936554,0.99,0.91,0.001
612,0.324264794588089,0.4057062268257141,0.99,0.91,0.001
613,0.32432034611701965,0.40558716654777527,0.99,0.91,0.001
614,0.3242695927619934,0.40594998002052307,0.99,0.91,0.001
615,0.3242237865924835,0.40587103366851807,0.99,0.91,0.001
616,0.32420092821121216,0.406278520822525,0.99,0.91,0.001
617,0.32424938678741455,0.4063127636909485,0.99,0.91,0.001
618,0.3242236077785492,0.4063338041305542,0.99,0.91,0.001
619,0.3242500424385071,0.4057864248752594,0.99,0.91,0.001
620,0.324260413646698,0.40530169010162354,0.99,0.91,0.001
621,0.32428085803985596,0.40544605255126953,0.99,0.91,0.001
622,0.3242359161376953,0.4062492251396179,0.99,0.91,0.001
623,0.32419344782829285,0.4053979516029358,0.99,0.91,0.001
624,0.3242536187171936,0.40499356389045715,0.99,0.91,0.001
625,0.3241584300994873,0.40553924441337585,0.99,0.91,0.001
626,0.32423436641693115,0.40646106004714966,0.99,0.91,0.001
627,0.3241918683052063,0.40715262293815613,0.99,0.91,0.001
628,0.3242465853691101,0.4058205485343933,0.99,0.91,0.001
629,0.3241918981075287,0.4052828550338745,0.99,0.91,0.001
630,0.32416465878486633,0.40562477707862854,0.99,0.91,0.001
631,0.3241756558418274,0.4066562354564667,0.99,0.91,0.001
632,0.3241550922393799,0.40688037872314453,0.99,0.91,0.001
633,0.3241170644760132,0.40704455971717834,0.99,0.91,0.001
634,0.3241530954837799,0.405481219291687,0.99,0.91,0.001
635,0.32417038083076477,0.40520235896110535,0.99,0.91,0.001
636,0.32415783405303955,0.4044666588306427,0.99,0.91,0.001
637,0.3241141438484192,0.40471112728118896,0.99,0.91,0.001
638,0.32419833540916443,0.40573567152023315,0.99,0.91,0.001
639,0.3241743743419647,0.4057314991950989,0.99,0.91,0.001
640,0.3241053521633148,0.40601199865341187,0.99,0.91,0.001
641,0.3242041766643524,0.40627890825271606,0.99,0.91,0.001
642,0.3241825997829437,0.4058965742588043,0.99,0.91,0.001
643,0.324135422706604,0.40574491024017334,0.99,0.91,0.001
644,0.3241303563117981,0.40570759773254395,0.99,0.91,0.001
645,0.3241303563117981,0.4060872793197632,0.99,0.91,0.001
646,0.32416847348213196,0.40652740001678467,0.99,0.91,0.001
647,0.3240717947483063,0.40562087297439575,0.99,0.91,0.001
648,0.32414913177490234,0.4049016237258911,0.99,0.91,0.001
649,0.3241287171840668,0.4045000374317169,0.99,0.91,0.001
650,0.3240927755832672,0.404143363237381,0.99,0.91,0.001
651,0.32407042384147644,0.4042789936065674,0.99,0.91,0.001
652,0.32406529784202576,0.4045240879058838,0.99,0.91,0.001
653,0.3241026997566223,0.4050017297267914,0.99,0.91,0.001
654,0.32411685585975647,0.4049178957939148,0.99,0.91,0.001
655,0.3241013288497925,0.40468519926071167,0.99,0.91,0.001
656,0.32411086559295654,0.40514397621154785,0.99,0.91,0.001
657,0.3240526616573334,0.4060242474079132,0.99,0.91,0.001
658,0.3240950405597687,0.4059668481349945,0.99,0.91,0.001
659,0.32415616512298584,0.40610820055007935,0.99,0.91,0.001
660,0.3240590989589691,0.40638306736946106,0.99,0.91,0.001
661,0.3240341544151306,0.4059486389160156,0.99,0.91,0.001
662,0.3241482079029083,0.4055820107460022,0.99,0.91,0.001
663,0.32403382658958435,0.40488553047180176,0.99,0.91,0.001
664,0.32410717010498047,0.4052067697048187,0.99,0.91,0.001
665,0.3240734338760376,0.40487995743751526,0.99,0.91,0.001
666,0.32410502433776855,0.4046279788017273,0.99,0.91,0.001
667,0.324064701795578,0.4041379690170288,0.99,0.91,0.001
668,0.3240307867527008,0.4040285050868988,0.99,0.91,0.001
669,0.32408151030540466,0.404260516166687,0.99,0.91,0.001
670,0.3241026997566223,0.40613335371017456,0.99,0.91,0.001
671,0.3240474462509155,0.40620604157447815,0.99,0.91,0.001
672,0.32401496171951294,0.4052008092403412,0.99,0.91,0.001
673,0.3240076005458832,0.4043763279914856,0.99,0.91,0.001
674,0.3240419030189514,0.4054029881954193,0.99,0.91,0.001
675,0.32403022050857544,0.40571966767311096,0.99,0.91,0.001
676,0.32401198148727417,0.4062146246433258,0.99,0.91,0.001
677,0.3240678012371063,0.40574973821640015,0.99,0.91,0.001
678,0.32402151823043823,0.40493103861808777,0.99,0.91,0.001
679,0.32401371002197266,0.40439847111701965,0.99,0.91,0.001
680,0.32403576374053955,0.40421974658966064,0.99,0.91,0.001
681,0.3239895701408386,0.40418025851249695,0.99,0.91,0.001
682,0.3239855468273163,0.40514910221099854,0.99,0.91,0.001
683,0.32398539781570435,0.40571463108062744,0.99,0.91,0.001
684,0.3240593373775482,0.405427485704422,0.99,0.91,0.001
685,0.3240259885787964,0.4053940176963806,0.99,0.91,0.001
686,0.3240163028240204,0.4041077792644501,0.99,0.91,0.001
687,0.3240273594856262,0.403881311416626,0.99,0.91,0.001
688,0.3239939510822296,0.4042666256427765,0.99,0.91,0.001
689,0.32409191131591797,0.4046235978603363,0.99,0.91,0.001
690,0.32398468255996704,0.4041130840778351,0.99,0.91,0.001
691,0.32399317622184753,0.4040565490722656,0.99,0.91,0.001
692,0.3240196704864502,0.40348684787750244,0.99,0.92,0.001
693,0.3239924907684326,0.40331363677978516,0.99,0.92,0.001
694,0.3240203857421875,0.4036318063735962,0.99,0.92,0.001
695,0.32404324412345886,0.404025673866272,0.99,0.91,0.001
696,0.32399889826774597,0.4043899178504944,0.99,0.91,0.001
697,0.3239690065383911,0.404968798160553,0.99,0.91,0.001
698,0.3240155875682831,0.4041644036769867,0.99,0.91,0.001
699,0.3239933252334595,0.4043278992176056,0.99,0.91,0.001
700,0.32399699091911316,0.4050425589084625,0.99,0.91,0.001
701,0.324003130197525,0.4047364890575409,0.99,0.91,0.001
702,0.3240039050579071,0.4047693610191345,0.99,0.91,0.001
703,0.3239559531211853,0.4053984582424164,0.99,0.91,0.001
704,0.32396167516708374,0.40519896149635315,0.99,0.91,0.001
705,0.32394835352897644,0.40467289090156555,0.99,0.91,0.001
706,0.3239818215370178,0.4037957787513733,0.99,0.92,0.001
707,0.3239348530769348,0.4035664498806,0.99,0.92,0.001
708,0.32397744059562683,0.4043760299682617,0.99,0.91,0.001
709,0.3239002525806427,0.4054441750049591,0.99,0.91,0.001
710,0.32393547892570496,0.405700147151947,0.99,0.91,0.001
711,0.3239510655403137,0.4055899679660797,0.99,0.91,0.001
712,0.32397040724754333,0.40536993741989136,0.99,0.91,0.001
713,0.3239467740058899,0.4043327271938324,0.99,0.91,0.001
714,0.3239148259162903,0.4042704701423645,0.99,0.91,0.001
715,0.32392990589141846,0.404525488615036,0.99,0.91,0.001
716,0.32388415932655334,0.40500518679618835,0.99,0.91,0.001
717,0.32389509677886963,0.4055549204349518,0.99,0.91,0.001
718,0.3239210844039917,0.4056518077850342,0.99,0.91,0.001
719,0.3239201009273529,0.40505555272102356,0.99,0.91,0.001
720,0.32397162914276123,0.4042227566242218,0.99,0.91,0.001
721,0.32390525937080383,0.40400925278663635,0.99,0.91,0.001
722,0.3239251375198364,0.4041624367237091,0.99,0.91,0.001
723,0.3239547610282898,0.4044317603111267,0.99,0.91,0.001
724,0.3239106237888336,0.4055635929107666,0.99,0.91,0.001
725,0.3239022195339203,0.40546557307243347,0.99,0.91,0.001
726,0.3239297568798065,0.40489211678504944,0.99,0.91,0.001
727,0.3239385187625885,0.4043583571910858,0.99,0.91,0.001
728,0.32389095425605774,0.40392640233039856,0.99,0.91,0.001
729,0.32393306493759155,0.40434592962265015,0.99,0.91,0.001
730,0.3239278793334961,0.40517204999923706,0.99,0.91,0.001
731,0.3239001929759979,0.4051486551761627,0.99,0.91,0.001
732,0.32392483949661255,0.40494391322135925,0.99,0.91,0.001
733,0.3239046335220337,0.40465033054351807,0.99,0.91,0.001
734,0.32391592860221863,0.40364179015159607,0.99,0.91,0.001
735,0.32387831807136536,0.40318164229393005,0.99,0.92,0.001
736,0.32393181324005127,0.40350720286369324,0.99,0.91,0.001
737,0.3238827586174011,0.40430763363838196,0.99,0.91,0.001
738,0.3238752484321594,0.40473872423171997,0.99,0.91,0.001
739,0.32391223311424255,0.40436896681785583,0.99,0.91,0.001
740,0.3239148259162903,0.403970867395401,0.99,0.91,0.001
741,0.3238767683506012,0.40409573912620544,0.99,0.91,0.001
742,0.32388702034950256,0.40384623408317566,0.99,0.91,0.001
743,0.32382163405418396,0.40383070707321167,0.99,0.91,0.001
744,0.323882520198822,0.40435609221458435,0.99,0.91,0.001
745,0.3238874673843384,0.40450188517570496,0.99,0.91,0.001
746,0.3238593637943268,0.404977411031723,0.99,0.91,0.001
747,0.3238263726234436,0.40489882230758667,0.99,0.91,0.001
748,0.3239024877548218,0.40516406297683716,0.99,0.91,0.001
749,0.32383498549461365,0.4039525091648102,0.99,0.91,0.001
750,0.3238736391067505,0.40317320823669434,0.99,0.91,0.001
751,0.3239046037197113,0.40307217836380005,0.99,0.91,0.001
752,0.3239012062549591,0.4036133587360382,0.99,0.91,0.001
753,0.3238958716392517,0.4040542542934418,0.99,0.91,0.001
754,0.3238725960254669,0.40460774302482605,0.99,0.91,0.001
755,0.3238303065299988,0.40493133664131165,0.99,0.91,0.001
756,0.323841392993927,0.4047125279903412,0.99,0.91,0.001
757,0.3238464295864105,0.4046347737312317,0.99,0.91,0.001
758,0.32385802268981934,0.4047374427318573,0.99,0.91,0.001
759,0.32385870814323425,0.4043843448162079,0.99,0.91,0.001
760,0.32384148240089417,0.4045240879058838,0.99,0.91,0.001
761,0.32383424043655396,0.4046492278575897,0.99,0.91,0.001
762,0.3238484859466553,0.4047742486000061,0.99,0.91,0.001
763,0.32385021448135376,0.40481317043304443,0.99,0.91,0.001
764,0.3238110840320587,0.4045388698577881,0.99,0.91,0.001
765,0.3238840401172638,0.40431612730026245,0.99,0.91,0.001
766,0.32383403182029724,0.4034022390842438,0.99,0.91,0.001
767,0.32381880283355713,0.404071569442749,0.99,0.91,0.001
768,0.32382363080978394,0.4045122265815735,0.99,0.91,0.001
769,0.3237932324409485,0.4047730267047882,0.99,0.91,0.001
770,0.32383736968040466,0.4053352475166321,0.99,0.91,0.001
771,0.32383209466934204,0.40460705757141113,0.99,0.91,0.001
772,0.32379454374313354,0.40412989258766174,0.99,0.91,0.001
773,0.3238086700439453,0.403583824634552,0.99,0.91,0.001
774,0.3238650858402252,0.40315884351730347,0.99,0.91,0.001
775,0.32380521297454834,0.40303826332092285,0.99,0.92,0.001
776,0.3238421678543091,0.40398970246315,0.99,0.91,0.001
777,0.32380926609039307,0.4056529998779297,0.99,0.91,0.001
778,0.32383596897125244,0.40600383281707764,0.99,0.91,0.001
779,0.32378730177879333,0.40545886754989624,0.99,0.91,0.001
780,0.3237963914871216,0.404613733291626,0.99,0.91,0.001
781,0.3238182067871094,0.40335503220558167,0.99,0.91,0.001
782,0.32385513186454773,0.40302783250808716,0.99,0.92,0.001
783,0.32378754019737244,0.40360844135284424,0.99,0.91,0.001
784,0.3237939774990082,0.40379130840301514,0.99,0.91,0.001
785,0.3237948715686798,0.4041127860546112,0.99,0.91,0.001
786,0.3238111436367035,0.4043358862400055,0.99,0.91,0.001
787,0.32377585768699646,0.40397995710372925,0.99,0.91,0.001
788,0.3238176703453064,0.40341517329216003,0.99,0.91,0.001
789,0.3238125145435333,0.403942346572876,0.99,0.91,0.001
790,0.32385021448135376,0.40493279695510864,0.99,0.91,0.001
791,0.32377883791923523,0.4054974615573883,0.99,0.91,0.001
792,0.3238411843776703,0.4058172106742859,0.99,0.91,0.001
793,0.32377147674560547,0.4053339660167694,0.99,0.91,0.001
794,0.32375428080558777,0.40474867820739746,0.99,0.91,0.001
795,0.323752760887146,0.40418609976768494,0.99,0.91,0.001
796,0.32376906275749207,0.40382251143455505,0.99,0.91,0.001
797,0.3237989842891693,0.40334057807922363,0.99,0.91,0.001
798,0.3237900137901306,0.4035068154335022,0.99,0.91,0.001
799,0.3238069415092468,0.403880774974823,0.99,0.91,0.001
800,0.32375407218933105,0.403366357088089,0.99,0.92,0.001
801,0.32381030917167664,0.4030168652534485,0.99,0.92,0.001
802,0.323779821395874,0.4031268060207367,0.99,0.92,0.001
803,0.3237955570220947,0.40381816029548645,0.99,0.92,0.001
804,0.32376646995544434,0.403585284948349,0.99,0.92,0.001
805,0.32377299666404724,0.4040983319282532,0.99,0.91,0.001
806,0.32373949885368347,0.4040418863296509,0.99,0.91,0.001
807,0.3237469494342804,0.4035090506076813,0.99,0.91,0.001
808,0.3237239122390747,0.40363553166389465,0.99,0.91,0.001
809,0.3237927258014679,0.40340808033943176,0.99,0.91,0.001
810,0.3237663209438324,0.4040204882621765,0.99,0.91,0.001
811,0.32376229763031006,0.4041624069213867,0.99,0.91,0.001
812,0.3237704932689667,0.4036060571670532,0.99,0.91,0.001
813,0.32375773787498474,0.4032105505466461,0.99,0.91,0.001
814,0.32379162311553955,0.4033585786819458,0.99,0.91,0.001
815,0.3237658441066742,0.4035550057888031,0.99,0.91,0.001
816,0.32378968596458435,0.40392646193504333,0.99,0.91,0.001
817,0.3237425684928894,0.40418779850006104,0.99,0.91,0.001
818,0.3237529695034027,0.4042978286743164,0.99,0.91,0.001
819,0.32375866174697876,0.4039560556411743,0.99,0.91,0.001
820,0.32372769713401794,0.4038430154323578,0.99,0.91,0.001
821,0.32374322414398193,0.40388378500938416,0.99,0.91,0.001
822,0.323777437210083,0.40445128083229065,0.99,0.91,0.001
823,0.32374846935272217,0.4047270715236664,0.99,0.91,0.001
824,0.3237636983394623,0.40506625175476074,0.99,0.91,0.001
825,0.323772132396698,0.40436282753944397,0.99,0.91,0.001
826,0.32373636960983276,0.4037640392780304,0.99,0.91,0.001
827,0.323760986328125,0.40377581119537354,0.99,0.91,0.001
828,0.3237762153148651,0.4036518931388855,0.99,0.92,0.001
829,0.3237362205982208,0.4043155610561371,0.99,0.91,0.001
830,0.32369133830070496,0.40455517172813416,0.99,0.91,0.001
831,0.32374754548072815,0.404547780752182,0.99,0.91,0.001
832,0.3237472176551819,0.40389835834503174,0.99,0.92,0.001
833,0.3237783908843994,0.40318527817726135,0.99,0.92,0.001
834,0.32372796535491943,0.40390610694885254,0.99,0.91,0.001
835,0.3237248659133911,0.4043835699558258,0.99,0.91,0.001
836,0.323751837015152,0.4049549400806427,0.99,0.91,0.001
837,0.32377928495407104,0.40581998229026794,0.99,0.91,0.001
838,0.32370686531066895,0.40544238686561584,0.99,0.91,0.001
839,0.32374900579452515,0.4046970009803772,0.99,0.91,0.001
840,0.3237452805042267,0.4037490487098694,0.99,0.91,0.001
841,0.3237055242061615,0.4032200276851654,0.99,0.91,0.001
842,0.323750376701355,0.4033815264701843,0.99,0.91,0.001
843,0.32374194264411926,0.4037236273288727,0.99,0.91,0.001
844,0.323705792427063,0.40384241938591003,0.99,0.91,0.001
845,0.3236927092075348,0.4040588140487671,0.99,0.91,0.001
846,0.3237673044204712,0.40447795391082764,0.99,0.91,0.001
847,0.32373812794685364,0.4044097661972046,0.99,0.91,0.001
848,0.3236924707889557,0.4043012857437134,0.99,0.91,0.001
849,0.3236856758594513,0.40367022156715393,0.99,0.91,0.001
850,0.3237053155899048,0.4034298062324524,0.99,0.91,0.001
851,0.3237386643886566,0.40374547243118286,0.99,0.91,0.001
852,0.32370543479919434,0.40388381481170654,0.99,0.91,0.001
853,0.3237323462963104,0.4032730162143707,0.99,0.92,0.001
854,0.3236950635910034,0.4026339650154114,0.99,0.92,0.001
855,0.3237210810184479,0.4026370942592621,0.99,0.92,0.001
856,0.32371410727500916,0.4024927616119385,0.99,0.92,0.001
857,0.32367366552352905,0.40271592140197754,0.99,0.92,0.001
858,0.32371506094932556,0.402859091758728,0.99,0.92,0.001
859,0.32368746399879456,0.40295490622520447,0.99,0.92,0.001
860,0.32369083166122437,0.4029430150985718,0.99,0.92,0.001
861,0.32370883226394653,0.4039081931114197,0.99,0.91,0.001
862,0.3236449062824249,0.4042999744415283,0.99,0.91,0.001
863,0.3237176239490509,0.4053727090358734,0.99,0.91,0.001
864,0.32370418310165405,0.405233234167099,0.99,0.91,0.001
865,0.3237465023994446,0.4042917490005493,0.99,0.91,0.001
866,0.3236706852912903,0.40307047963142395,0.99,0.91,0.001
867,0.3237159252166748,0.4023188054561615,0.99,0.92,0.001
868,0.32368603348731995,0.4026331603527069,0.99,0.92,0.001
869,0.32368800044059753,0.40354302525520325,0.99,0.92,0.001
870,0.3236701488494873,0.4043933153152466,0.99,0.91,0.001
871,0.3237093687057495,0.4048323929309845,0.99,0.91,0.001
872,0.32366904616355896,0.4043954014778137,0.99,0.91,0.001
873,0.32369595766067505,0.403861403465271,0.99,0.91,0.001
874,0.3236650228500366,0.4033837616443634,0.99,0.91,0.001
875,0.3236451745033264,0.4028756320476532,0.99,0.91,0.001
876,0.3236740827560425,0.4034837484359741,0.99,0.91,0.001
877,0.3237043619155884,0.403839647769928,0.99,0.91,0.001
878,0.3236648142337799,0.4049910008907318,0.99,0.91,0.001
879,0.3237214982509613,0.4056248366832733,0.99,0.91,0.001
880,0.3236920237541199,0.4049648940563202,0.99,0.91,0.001
881,0.3236504793167114,0.40406230092048645,0.99,0.91,0.001
882,0.32368314266204834,0.4033771753311157,0.99,0.91,0.001
883,0.3236677944660187,0.4026353359222412,0.99,0.91,0.001
884,0.32370346784591675,0.402374267578125,0.99,0.92,0.001
885,0.32368412613868713,0.40266886353492737,0.99,0.92,0.001
886,0.32367396354675293,0.4038832187652588,0.99,0.91,0.001
887,0.32369884848594666,0.40465500950813293,0.99,0.91,0.001
888,0.3236788809299469,0.40415939688682556,0.99,0.91,0.001
889,0.3236680328845978,0.4032149910926819,0.99,0.91,0.001
890,0.32366812229156494,0.4034489393234253,0.99,0.91,0.001
891,0.32366129755973816,0.4030919671058655,0.99,0.91,0.001
892,0.3236519694328308,0.4035501778125763,0.99,0.91,0.001
893,0.32368937134742737,0.40328994393348694,0.99,0.91,0.001
894,0.3236916661262512,0.40400004386901855,0.99,0.91,0.001
895,0.32366207242012024,0.40403175354003906,0.99,0.91,0.001
896,0.32366442680358887,0.4042166769504547,0.99,0.91,0.001
897,0.3237115442752838,0.40362560749053955,0.99,0.91,0.001
898,0.3236578702926636,0.4030499756336212,0.99,0.91,0.001
899,0.32366102933883667,0.4025167226791382,0.99,0.92,0.001
900,0.32366204261779785,0.4026554226875305,0.99,0.92,0.001
901,0.32366591691970825,0.4027574062347412,0.99,0.92,0.001
902,0.3236405551433563,0.40301191806793213,0.99,0.92,0.001
903,0.32367226481437683,0.40367546677589417,0.99,0.91,0.001
904,0.3236790895462036,0.40395450592041016,0.99,0.91,0.001
905,0.32363322377204895,0.4045847952365875,0.99,0.91,0.001
906,0.32366761565208435,0.4044688045978546,0.99,0.91,0.001
907,0.3236351013183594,0.40425431728363037,0.99,0.91,0.001
908,0.3236529529094696,0.4036162495613098,0.99,0.91,0.001
909,0.3236442804336548,0.40390968322753906,0.99,0.91,0.001
910,0.32366740703582764,0.4041785001754761,0.99,0.91,0.001
911,0.32365182042121887,0.4049568176269531,0.99,0.91,0.001
912,0.3236687481403351,0.4051784574985504,0.99,0.91,0.001
913,0.3236750364303589,0.4050394892692566,0.99,0.91,0.001
914,0.32365500926971436,0.4043865203857422,0.99,0.91,0.001
915,0.3236341178417206,0.4039213955402374,0.99,0.91,0.001
916,0.32362669706344604,0.40365418791770935,0.99,0.91,0.001
917,0.32363995909690857,0.4035954773426056,0.99,0.91,0.001
918,0.3236325979232788,0.40356552600860596,0.99,0.92,0.001
919,0.3236394226551056,0.40401691198349,0.99,0.91,0.001
920,0.3236307203769684,0.40459656715393066,0.99,0.91,0.001
921,0.32365018129348755,0.4045991003513336,0.99,0.91,0.001
922,0.32365912199020386,0.4039969742298126,0.99,0.91,0.001
923,0.32361769676208496,0.4031951427459717,0.99,0.91,0.001
924,0.3236687183380127,0.4030163586139679,0.99,0.91,0.001
925,0.3236408233642578,0.403388112783432,0.99,0.91,0.001
926,0.3236207664012909,0.40391814708709717,0.99,0.91,0.001
927,0.3236393332481384,0.4042125940322876,0.99,0.91,0.001
928,0.3236326575279236,0.4048781991004944,0.99,0.91,0.001
929,0.32364028692245483,0.4048319160938263,0.99,0.91,0.001
930,0.3236289918422699,0.40411531925201416,0.99,0.91,0.001
931,0.3236318528652191,0.4037371873855591,0.99,0.91,0.001
932,0.32362961769104004,0.4028826653957367,0.99,0.91,0.001
933,0.32366812229156494,0.4028470516204834,0.99,0.91,0.001
934,0.3236411213874817,0.4034091830253601,0.99,0.91,0.001
935,0.3236136734485626,0.40348201990127563,0.99,0.91,0.001
936,0.32359883189201355,0.4038453698158264,0.99,0.91,0.001
937,0.3236263394355774,0.40411508083343506,0.99,0.91,0.001
938,0.3236180543899536,0.40392643213272095,0.99,0.91,0.001
939,0.3236129879951477,0.40372124314308167,0.99,0.91,0.001
940,0.3236423432826996,0.403767466545105,0.99,0.91,0.001
941,0.32362037897109985,0.4036882817745209,0.99,0.91,0.001
942,0.32360780239105225,0.4035513401031494,0.99,0.91,0.001
943,0.3236096501350403,0.40391120314598083,0.99,0.91,0.001
944,0.3236175775527954,0.4041579067707062,0.99,0.91,0.001
945,0.3236048221588135,0.40440917015075684,0.99,0.91,0.001
946,0.32364314794540405,0.4042602777481079,0.99,0.91,0.001
947,0.3236210346221924,0.403678297996521,0.99,0.91,0.001
948,0.32362788915634155,0.4034756124019623,0.99,0.91,0.001
949,0.3236055076122284,0.4033760130405426,0.99,0.91,0.001
950,0.3236035108566284,0.40363261103630066,0.99,0.91,0.001
951,0.32361453771591187,0.40379032492637634,0.99,0.91,0.001
952,0.32359713315963745,0.40396735072135925,0.99,0.91,0.001
953,0.32363083958625793,0.40327873826026917,0.99,0.91,0.001
954,0.32358765602111816,0.40306323766708374,0.99,0.91,0.001
955,0.32361286878585815,0.40297821164131165,0.99,0.91,0.001
956,0.3235991299152374,0.40293657779693604,0.99,0.91,0.001
957,0.32360878586769104,0.40307822823524475,0.99,0.91,0.001
958,0.3236132860183716,0.4034961462020874,0.99,0.91,0.001
959,0.3236102759838104,0.4037710428237915,0.99,0.91,0.001
960,0.32362648844718933,0.4042820334434509,0.99,0.91,0.001
961,0.32359179854393005,0.40400928258895874,0.99,0.91,0.001
962,0.32362130284309387,0.4035598039627075,0.99,0.91,0.001
963,0.32360780239105225,0.40301501750946045,0.99,0.91,0.001
964,0.323604941368103,0.4029344320297241,0.99,0.91,0.001
965,0.3235969543457031,0.4027443826198578,0.99,0.91,0.001
966,0.32359957695007324,0.40293648838996887,0.99,0.91,0.001
967,0.32360830903053284,0.4029540717601776,0.99,0.91,0.001
968,0.3235926330089569,0.40325698256492615,0.99,0.91,0.001
969,0.3236067295074463,0.4039849042892456,0.99,0.91,0.001
970,0.32357922196388245,0.4036737084388733,0.99,0.91,0.001
971,0.3236021101474762,0.40311822295188904,0.99,0.91,0.001
972,0.3235958516597748,0.40327122807502747,0.99,0.91,0.001
973,0.32356277108192444,0.40371644496917725,0.99,0.91,0.001
974,0.32358813285827637,0.4041875898838043,0.99,0.91,0.001
975,0.3235830068588257,0.40443041920661926,0.99,0.91,0.001
976,0.32359978556632996,0.4044124484062195,0.99,0.91,0.001
977,0.3236077129840851,0.4038779139518738,0.99,0.91,0.001
978,0.3235875070095062,0.4029930830001831,0.99,0.91,0.001
979,0.32359808683395386,0.4025796949863434,0.99,0.92,0.001
980,0.3236043453216553,0.40264877676963806,0.99,0.92,0.001
981,0.32359859347343445,0.4030221700668335,0.99,0.92,0.001
982,0.32356300950050354,0.4038628339767456,0.99,0.91,0.001
983,0.3235732316970825,0.4041091203689575,0.99,0.91,0.001
984,0.3235698342323303,0.40450435876846313,0.99,0.91,0.001
985,0.32359063625335693,0.4041394293308258,0.99,0.91,0.001
986,0.3235776126384735,0.40458056330680847,0.99,0.91,0.001
987,0.32357466220855713,0.4038946032524109,0.99,0.91,0.001
988,0.3235735297203064,0.4038941562175751,0.99,0.91,0.001
989,0.32358092069625854,0.40374457836151123,0.99,0.91,0.001
990,0.3235967755317688,0.40382030606269836,0.99,0.91,0.001
991,0.3235955536365509,0.40332770347595215,0.99,0.91,0.001
992,0.32359713315963745,0.4030584692955017,0.99,0.91,0.001
993,0.32357487082481384,0.40287670493125916,0.99,0.91,0.001
994,0.32357078790664673,0.4020816385746002,0.99,0.92,0.001
995,0.323574036359787,0.40248963236808777,0.99,0.92,0.001
996,0.32358142733573914,0.40283384919166565,0.99,0.92,0.001
997,0.32358062267303467,0.4033723473548889,0.99,0.91,0.001
998,0.3235878050327301,0.4030640721321106,0.99,0.92,0.001
999,0.32356852293014526,0.40358707308769226,0.99,0.91,0.001
1000,0.32357364892959595,0.40364718437194824,0.99,0.91,0.001
1001,0.32360783219337463,0.40436190366744995,0.99,0.91,0.001
1002,0.3235625922679901,0.40459078550338745,0.99,0.91,0.001
1003,0.32358306646347046,0.4044398069381714,0.99,0.91,0.001
1004,0.3235774338245392,0.40395963191986084,0.99,0.91,0.001
1005,0.32355743646621704,0.40389296412467957,0.99,0.91,0.001
1006,0.32359305024147034,0.40385037660598755,0.99,0.91,0.001
1007,0.3235704004764557,0.4035075306892395,0.99,0.91,0.001
1008,0.32356902956962585,0.40391936898231506,0.99,0.91,0.001
1009,0.3235788345336914,0.4038406312465668,0.99,0.91,0.001
1010,0.32358863949775696,0.403809130191803,0.99,0.91,0.001
1011,0.32356753945350647,0.4033588171005249,0.99,0.91,0.001
1012,0.32355257868766785,0.4034694731235504,0.99,0.91,0.001
1013,0.3235582709312439,0.40370631217956543,0.99,0.91,0.001
1014,0.32355713844299316,0.40397071838378906,0.99,0.91,0.001
1015,0.3235737085342407,0.4038185179233551,0.99,0.91,0.001
1016,0.32358577847480774,0.40371841192245483,0.99,0.91,0.001
1017,0.3235505223274231,0.40373340249061584,0.99,0.91,0.001
1018,0.3235931396484375,0.4030081033706665,0.99,0.91,0.001
1019,0.3235666751861572,0.40280425548553467,0.99,0.92,0.001
1020,0.32356423139572144,0.4027155637741089,0.99,0.92,0.001
1021,0.3235645592212677,0.40325871109962463,0.99,0.92,0.001
1022,0.32356497645378113,0.40402862429618835,0.99,0.91,0.001
1023,0.3235529065132141,0.40460917353630066,0.99,0.91,0.001
1024,0.3235515356063843,0.4043201208114624,0.99,0.91,0.001
1025,0.3235505223274231,0.40366804599761963,0.99,0.91,0.001
1026,0.32355591654777527,0.4034746289253235,0.99,0.91,0.001
1027,0.32355454564094543,0.4035862386226654,0.99,0.91,0.001
1028,0.32354751229286194,0.403589129447937,0.99,0.91,0.001
1029,0.3235425651073456,0.4036325514316559,0.99,0.91,0.001
1030,0.32356905937194824,0.4033050239086151,0.99,0.91,0.001
1031,0.3235400915145874,0.4029497504234314,0.99,0.91,0.001
1032,0.32355108857154846,0.403011679649353,0.99,0.91,0.001
1033,0.32354268431663513,0.4029406011104584,0.99,0.92,0.001
1034,0.32354897260665894,0.4030940532684326,0.99,0.92,0.001
1035,0.32354217767715454,0.4033038318157196,0.99,0.91,0.001
1036,0.32355526089668274,0.40417614579200745,0.99,0.91,0.001
1037,0.323547899723053,0.40426409244537354,0.99,0.91,0.001
1038,0.3235584497451782,0.4036766290664673,0.99,0.91,0.001
1039,0.32355010509490967,0.40327194333076477,0.99,0.91,0.001
1040,0.3235701620578766,0.40301719307899475,0.99,0.92,0.001
1041,0.3235408365726471,0.40287116169929504,0.99,0.92,0.001
1042,0.32354822754859924,0.40334823727607727,0.99,0.92,0.001
1043,0.3235514760017395,0.4036812484264374,0.99,0.91,0.001
1044,0.323542058467865,0.4035070538520813,0.99,0.91,0.001
1045,0.32355403900146484,0.403255432844162,0.99,0.91,0.001
1046,0.32353806495666504,0.4031594395637512,0.99,0.91,0.001
1047,0.32353606820106506,0.40285441279411316,0.99,0.92,0.001
1048,0.32354018092155457,0.4029810428619385,0.99,0.92,0.001
1049,0.323543906211853,0.40338993072509766,0.99,0.91,0.001
1050,0.3235459625720978,0.4035702645778656,0.99,0.91,0.001
1051,0.32353487610816956,0.4041779041290283,0.99,0.91,0.001
1052,0.3235294222831726,0.40386757254600525,0.99,0.91,0.001
1053,0.32353562116622925,0.40335413813591003,0.99,0.91,0.001
1054,0.32353565096855164,0.4031253457069397,0.99,0.91,0.001
1055,0.32352498173713684,0.40316376090049744,0.99,0.91,0.001
1056,0.32353687286376953,0.40346038341522217,0.99,0.91,0.001
1057,0.3235287368297577,0.4034922122955322,0.99,0.91,0.001
1058,0.3235251307487488,0.4035589098930359,0.99,0.91,0.001
1059,0.32352036237716675,0.40383315086364746,0.99,0.91,0.001
1060,0.32352215051651,0.40347960591316223,0.99,0.91,0.001
1061,0.3235622048377991,0.40321803092956543,0.99,0.91,0.001
1062,0.32353290915489197,0.4028076231479645,0.99,0.91,0.001
1063,0.3235480785369873,0.4028586447238922,0.99,0.91,0.001
1064,0.3235197067260742,0.4028996229171753,0.99,0.91,0.001
1065,0.3235493004322052,0.40289226174354553,0.99,0.91,0.001
1066,0.3235221803188324,0.40317684412002563,0.99,0.91,0.001
1067,0.3235345780849457,0.4027703106403351,0.99,0.91,0.001
1068,0.3235476613044739,0.4028095304965973,0.99,0.91,0.001
1069,0.3235120475292206,0.4025922417640686,0.99,0.92,0.001
1070,0.3235110342502594,0.4025592505931854,0.99,0.92,0.001
1071,0.3235163390636444,0.402925044298172,0.99,0.92,0.001
1072,0.32353320717811584,0.4031490385532379,0.99,0.92,0.001
1073,0.32352328300476074,0.4035573899745941,0.99,0.91,0.001
1074,0.32354283332824707,0.40405505895614624,0.99,0.91,0.001
1075,0.3235262930393219,0.4043063819408417,0.99,0.91,0.001
1076,0.32351818680763245,0.4041784405708313,0.99,0.91,0.001
1077,0.32351580262184143,0.4036206305027008,0.99,0.91,0.001
1078,0.3235292136669159,0.4028497040271759,0.99,0.91,0.001
1079,0.3235427737236023,0.40273311734199524,0.99,0.92,0.001
1080,0.323525071144104,0.4031742811203003,0.99,0.91,0.001
1081,0.32355061173439026,0.4038752317428589,0.99,0.91,0.001
1082,0.32355183362960815,0.40396010875701904,0.99,0.91,0.001
1083,0.32351920008659363,0.40328407287597656,0.99,0.91,0.001
1084,0.3235150873661041,0.40308326482772827,0.99,0.91,0.001
1085,0.32352158427238464,0.40270909667015076,0.99,0.92,0.001
1086,0.32352933287620544,0.40166595578193665,0.99,0.92,0.001
1087,0.32350829243659973,0.40214115381240845,0.99,0.92,0.001
1088,0.3235067129135132,0.40246719121932983,0.99,0.92,0.001
1089,0.3235096335411072,0.4027199447154999,0.99,0.92,0.001
1090,0.32353276014328003,0.4030076265335083,0.99,0.92,0.001
1091,0.323515921831131,0.4033941924571991,0.99,0.91,0.001
1092,0.32349857687950134,0.4033289849758148,0.99,0.91,0.001
1093,0.3235141634941101,0.40329161286354065,0.99,0.91,0.001
1094,0.3235192894935608,0.4028833508491516,0.99,0.92,0.001
1095,0.3235352039337158,0.4031256437301636,0.99,0.91,0.001
1096,0.323520302772522,0.4038699269294739,0.99,0.91,0.001
1097,0.3235034942626953,0.4044340252876282,0.99,0.91,0.001
1098,0.32351529598236084,0.40499553084373474,0.99,0.91,0.001
1099,0.3235311210155487,0.40464818477630615,0.99,0.91,0.001
1100,0.3235115110874176,0.4039429724216461,0.99,0.91,0.001
1101,0.32352396845817566,0.4028621315956116,0.99,0.92,0.001
1102,0.3235359489917755,0.40190669894218445,0.99,0.92,0.001
1103,0.3235037922859192,0.401856929063797,0.99,0.92,0.001
1104,0.32353827357292175,0.4026328921318054,0.99,0.92,0.001
1105,0.32353049516677856,0.4032633304595947,0.99,0.92,0.001
1106,0.32351043820381165,0.4031478464603424,0.99,0.92,0.001
1107,0.3235134482383728,0.4027470648288727,0.99,0.92,0.001
1108,0.32353031635284424,0.4024324417114258,0.99,0.92,0.001
1109,0.32350772619247437,0.402675598859787,0.99,0.92,0.001
1110,0.3235260844230652,0.4030662775039673,0.99,0.92,0.001
1111,0.32352474331855774,0.4040415287017822,0.99,0.91,0.001
1112,0.3235049545764923,0.4043193757534027,0.99,0.91,0.001
1113,0.3235078454017639,0.40450364351272583,0.99,0.91,0.001
1114,0.32349860668182373,0.40434184670448303,0.99,0.91,0.001
1115,0.3235105574131012,0.4036152958869934,0.99,0.91,0.001
1116,0.3235124349594116,0.40301191806793213,0.99,0.91,0.001
1117,0.3235202431678772,0.40327608585357666,0.99,0.91,0.001
1118,0.323530912399292,0.4035267233848572,0.99,0.91,0.001
1119,0.3234924376010895,0.40343692898750305,0.99,0.92,0.001
1120,0.32352110743522644,0.40349385142326355,0.99,0.91,0.001
1121,0.3235057592391968,0.40337902307510376,0.99,0.91,0.001
1122,0.3234958350658417,0.4031197428703308,0.99,0.92,0.001
1123,0.3234998285770416,0.4025669991970062,0.99,0.92,0.001
1124,0.3235146701335907,0.4023160934448242,0.99,0.92,0.001
1125,0.32349175214767456,0.4022407531738281,0.99,0.92,0.001
1126,0.32350337505340576,0.4021082818508148,0.99,0.92,0.001
1127,0.3235025405883789,0.40251949429512024,0.99,0.92,0.001
1128,0.323497474193573,0.40295425057411194,0.99,0.92,0.001
1129,0.323502779006958,0.4031282663345337,0.99,0.92,0.001
1130,0.323490709066391,0.4029872417449951,0.99,0.92,0.001
1131,0.32349643111228943,0.40304017066955566,0.99,0.92,0.001
1132,0.3235113024711609,0.40295150876045227,0.99,0.92,0.001
1133,0.3234836459159851,0.4030415415763855,0.99,0.91,0.001
1134,0.32350239157676697,0.40323832631111145,0.99,0.91,0.001
1135,0.32351070642471313,0.4032019078731537,0.99,0.91,0.001
1136,0.3234879672527313,0.4029824137687683,0.99,0.91,0.001
1137,0.3234998285770416,0.402831494808197,0.99,0.92,0.001
1138,0.3234940767288208,0.40240588784217834,0.99,0.92,0.001
1139,0.32350337505340576,0.40209418535232544,0.99,0.92,0.001
1140,0.3235088288784027,0.4020884037017822,0.99,0.92,0.001
1141,0.32348719239234924,0.4019432067871094,0.99,0.92,0.001
1142,0.3235011696815491,0.4023011326789856,0.99,0.92,0.001
1143,0.32350054383277893,0.40251100063323975,0.99,0.92,0.001
1144,0.3234938085079193,0.4021270275115967,0.99,0.92,0.001
1145,0.32349106669425964,0.4025591313838959,0.99,0.92,0.001
1146,0.32348355650901794,0.4027072489261627,0.99,0.92,0.001
1147,0.32351478934288025,0.40343329310417175,0.99,0.91,0.001
1148,0.32348477840423584,0.4035373330116272,0.99,0.91,0.001
1149,0.32348743081092834,0.40408915281295776,0.99,0.91,0.001
1150,0.323478102684021,0.4037877023220062,0.99,0.91,0.001
1151,0.32349860668182373,0.40342167019844055,0.99,0.91,0.001
1152,0.32346680760383606,0.40310099720954895,0.99,0.91,0.001
1153,0.32348084449768066,0.4031306207180023,0.99,0.91,0.001
1154,0.3234914541244507,0.40334656834602356,0.99,0.91,0.001
1155,0.3234882056713104,0.40374282002449036,0.99,0.91,0.001
1156,0.32347938418388367,0.4037613272666931,0.99,0.91,0.001
1157,0.3234841525554657,0.4040512442588806,0.99,0.91,0.001
1158,0.3234937787055969,0.40378403663635254,0.99,0.91,0.001
1159,0.32347190380096436,0.4034487009048462,0.99,0.91,0.001
1160,0.32347363233566284,0.4037414491176605,0.99,0.91,0.001
1161,0.3234948217868805,0.4038204848766327,0.99,0.91,0.001
1162,0.32348957657814026,0.4041834771633148,0.99,0.91,0.001
1163,0.3234925866127014,0.40458306670188904,0.99,0.91,0.001
1164,0.3234962522983551,0.40411701798439026,0.99,0.91,0.001
1165,0.32349124550819397,0.40399280190467834,0.99,0.91,0.001
1166,0.3235015869140625,0.40342605113983154,0.99,0.91,0.001
1167,0.323479562997818,0.4032400846481323,0.99,0.91,0.001
1168,0.32348260283470154,0.402981162071228,0.99,0.92,0.001
1169,0.32347914576530457,0.40339556336402893,0.99,0.91,0.001
1170,0.32348501682281494,0.4036380350589752,0.99,0.91,0.001
1171,0.3234732151031494,0.4037066698074341,0.99,0.91,0.001
1172,0.32348787784576416,0.4032500386238098,0.99,0.91,0.001
1173,0.3234694302082062,0.4033125936985016,0.99,0.91,0.001
1174,0.32347261905670166,0.4029732048511505,0.99,0.92,0.001
1175,0.32347992062568665,0.40268003940582275,0.99,0.92,0.001
1176,0.3234856128692627,0.4031441807746887,0.99,0.91,0.001
1177,0.32348307967185974,0.4035018980503082,0.99,0.91,0.001
1178,0.32348671555519104,0.40430188179016113,0.99,0.91,0.001
1179,0.3234870433807373,0.40460965037345886,0.99,0.91,0.001
1180,0.32347965240478516,0.403891384601593,0.99,0.91,0.001
1181,0.323470801115036,0.4037027657032013,0.99,0.91,0.001
1182,0.3234703838825226,0.4034298062324524,0.99,0.91,0.001
1183,0.32347846031188965,0.40340855717658997,0.99,0.91,0.001
1184,0.32347404956817627,0.40301769971847534,0.99,0.92,0.001
1185,0.3234789967536926,0.4027272164821625,0.99,0.92,0.001
1186,0.3235109746456146,0.40275201201438904,0.99,0.92,0.001
1187,0.32346534729003906,0.4026424288749695,0.99,0.92,0.001
1188,0.3234701454639435,0.402704656124115,0.99,0.91,0.001
1189,0.32349780201911926,0.40263479948043823,0.99,0.91,0.001
1190,0.32346633076667786,0.40262672305107117,0.99,0.92,0.001
1191,0.32347071170806885,0.4025864005088806,0.99,0.92,0.001
1192,0.3234710991382599,0.40301522612571716,0.99,0.91,0.001
1193,0.3234672248363495,0.4033760130405426,0.99,0.91,0.001
1194,0.32346925139427185,0.4040658175945282,0.99,0.91,0.001
1195,0.3234736919403076,0.4036412835121155,0.99,0.91,0.001
1196,0.32348573207855225,0.4035894274711609,0.99,0.91,0.001
1197,0.3234727084636688,0.4031521677970886,0.99,0.91,0.001
1198,0.32347050309181213,0.4030626714229584,0.99,0.92,0.001
1199,0.3234592080116272,0.402923583984375,0.99,0.92,0.001
1200,0.32346221804618835,0.40281474590301514,0.99,0.92,0.001
1201,0.3234664499759674,0.40297403931617737,0.99,0.92,0.001
1202,0.32348373532295227,0.4031386971473694,0.99,0.92,0.001
1203,0.3234611749649048,0.4029504060745239,0.99,0.92,0.001
1204,0.3234681189060211,0.4025644361972809,0.99,0.92,0.001
1205,0.3234645426273346,0.4023136496543884,0.99,0.92,0.001
1206,0.32345759868621826,0.40268003940582275,0.99,0.92,0.001
1207,0.3234725594520569,0.4026636779308319,0.99,0.92,0.001
1208,0.3234700858592987,0.4026578664779663,0.99,0.92,0.001
1209,0.3234759271144867,0.40289732813835144,0.99,0.91,0.001
1210,0.32346150279045105,0.4026089608669281,0.99,0.92,0.001
1211,0.32348811626434326,0.40254566073417664,0.99,0.92,0.001
1212,0.3234715759754181,0.4024110734462738,0.99,0.92,0.001
1213,0.3234702944755554,0.4023251235485077,0.99,0.92,0.001
1214,0.32346612215042114,0.402959942817688,0.99,0.92,0.001
1215,0.3234800398349762,0.40356266498565674,0.99,0.91,0.001
1216,0.32346710562705994,0.4036608040332794,0.99,0.91,0.001
1217,0.3234623372554779,0.4039899706840515,0.99,0.91,0.001
1218,0.32345256209373474,0.403386652469635,0.99,0.91,0.001
1219,0.32346442341804504,0.40299826860427856,0.99,0.92,0.001
1220,0.32346004247665405,0.4026232063770294,0.99,0.92,0.001
1221,0.3234666883945465,0.40250369906425476,0.99,0.92,0.001
1222,0.3234647810459137,0.402645468711853,0.99,0.92,0.001
1223,0.3234597146511078,0.4029322564601898,0.99,0.92,0.001
1224,0.3234536647796631,0.40303969383239746,0.99,0.92,0.001
1225,0.3234577178955078,0.40278324484825134,0.99,0.92,0.001
1226,0.3234654366970062,0.4023755192756653,0.99,0.92,0.001
1227,0.3234587609767914,0.40193676948547363,0.99,0.92,0.001
1228,0.32346099615097046,0.40140751004219055,0.99,0.92,0.001
1229,0.32344189286231995,0.40175652503967285,0.99,0.92,0.001
1230,0.3234623074531555,0.40281474590301514,0.99,0.92,0.001
1231,0.3234424293041229,0.40315884351730347,0.99,0.92,0.001
1232,0.3234555125236511,0.40374159812927246,0.99,0.91,0.001
1233,0.32344478368759155,0.40386658906936646,0.99,0.91,0.001
1234,0.3234695494174957,0.40393969416618347,0.99,0.91,0.001
1235,0.32345446944236755,0.4039386808872223,0.99,0.91,0.001
1236,0.32345059514045715,0.40347549319267273,0.99,0.91,0.001
1237,0.3234512209892273,0.4031327962875366,0.99,0.91,0.001
1238,0.32345303893089294,0.40335938334465027,0.99,0.91,0.001
1239,0.32342955470085144,0.4034605920314789,0.99,0.91,0.001
1240,0.3234468400478363,0.40303054451942444,0.99,0.92,0.001
1241,0.32346367835998535,0.40357670187950134,0.99,0.91,0.001
1242,0.3234744668006897,0.40398722887039185,0.99,0.91,0.001
1243,0.3234542906284332,0.40337812900543213,0.99,0.91,0.001
1244,0.3234567940235138,0.40311896800994873,0.99,0.91,0.001
1245,0.323449969291687,0.40245452523231506,0.99,0.92,0.001
1246,0.3234652578830719,0.4021608233451843,0.99,0.92,0.001
1247,0.3234582245349884,0.40254801511764526,0.99,0.92,0.001
1248,0.3234471380710602,0.40280643105506897,0.99,0.92,0.001
1249,0.3234477937221527,0.40338534116744995,0.99,0.92,0.001
1250,0.3234628438949585,0.4039474427700043,0.99,0.91,0.001
1251,0.3234523832798004,0.4036196768283844,0.99,0.91,0.001
1252,0.32345062494277954,0.40300750732421875,0.99,0.92,0.001
1253,0.32345128059387207,0.4025007486343384,0.99,0.92,0.001
1254,0.32345664501190186,0.40247640013694763,0.99,0.92,0.001
1255,0.3234463930130005,0.4026818573474884,0.99,0.92,0.001
1256,0.32345065474510193,0.40295031666755676,0.99,0.92,0.001
1257,0.3234541714191437,0.4032265543937683,0.99,0.92,0.001
1258,0.32346057891845703,0.4038550853729248,0.99,0.91,0.001
1259,0.323466420173645,0.4030437767505646,0.99,0.92,0.001
1260,0.3234397768974304,0.40274861454963684,0.99,0.92,0.001
1261,0.3234530985355377,0.40247127413749695,0.99,0.92,0.001
1262,0.3234465718269348,0.40181171894073486,0.99,0.92,0.001
1263,0.3234366476535797,0.4014311730861664,0.99,0.92,0.001
1264,0.32345831394195557,0.40186557173728943,0.99,0.92,0.001
1265,0.3234458565711975,0.4023209810256958,0.99,0.92,0.001
1266,0.323466956615448,0.40310147404670715,0.99,0.92,0.001
1267,0.3234415352344513,0.40391671657562256,0.99,0.91,0.001
1268,0.32343605160713196,0.40334057807922363,0.99,0.91,0.001
1269,0.3234431743621826,0.4031565189361572,0.99,0.91,0.001
1270,0.32345545291900635,0.4025757908821106,0.99,0.92,0.001
1271,0.32344695925712585,0.40162789821624756,0.99,0.92,0.001
1272,0.3234371244907379,0.401631623506546,0.99,0.92,0.001
1273,0.32345399260520935,0.40247246623039246,0.99,0.92,0.001
1274,0.32346031069755554,0.4030379056930542,0.99,0.92,0.001
1275,0.3234453499317169,0.40333878993988037,0.99,0.92,0.001
1276,0.32344427704811096,0.40352532267570496,0.99,0.91,0.001
1277,0.32343703508377075,0.40314781665802,0.99,0.92,0.001
1278,0.32343629002571106,0.4022425413131714,0.99,0.92,0.001
1279,0.3234327733516693,0.401935338973999,0.99,0.92,0.001
1280,0.3234373927116394,0.4021340310573578,0.99,0.92,0.001
1281,0.3234465420246124,0.4023607671260834,0.99,0.92,0.001
1282,0.3234449326992035,0.40277090668678284,0.99,0.92,0.001
1283,0.3234352767467499,0.40326783061027527,0.99,0.91,0.001
1284,0.3234292268753052,0.40336254239082336,0.99,0.91,0.001
1285,0.32344210147857666,0.4030734896659851,0.99,0.92,0.001
1286,0.323434978723526,0.4028204381465912,0.99,0.92,0.001
1287,0.3234420120716095,0.40241360664367676,0.99,0.92,0.001
1288,0.32344889640808105,0.4022313356399536,0.99,0.92,0.001
1289,0.32343336939811707,0.40236932039260864,0.99,0.92,0.001
1290,0.3234434127807617,0.4027164578437805,0.99,0.92,0.001
1291,0.32343825697898865,0.40332499146461487,0.99,0.91,0.001
1292,0.32344427704811096,0.4033466577529907,0.99,0.91,0.001
1293,0.3234345316886902,0.40317612886428833,0.99,0.91,0.001
1294,0.3234434127807617,0.40299052000045776,0.99,0.91,0.001
1295,0.32343044877052307,0.40262430906295776,0.99,0.92,0.001
1296,0.3234352469444275,0.40272220969200134,0.99,0.92,0.001
1297,0.32343730330467224,0.4033074676990509,0.99,0.92,0.001
1298,0.3234346807003021,0.40330561995506287,0.99,0.92,0.001
1299,0.32343795895576477,0.4031839668750763,0.99,0.92,0.001
1300,0.32343024015426636,0.4028281271457672,0.99,0.92,0.0007937005259840996
1301,0.32343772053718567,0.40240946412086487,0.99,0.92,0.0007937005259840996
1302,0.32343119382858276,0.40221869945526123,0.99,0.92,0.0007937005259840996
1303,0.3234313130378723,0.4019412696361542,0.99,0.92,0.0007937005259840996
1304,0.32343098521232605,0.40179646015167236,0.99,0.92,0.0007937005259840996
1305,0.3234424591064453,0.4018002450466156,0.99,0.92,0.0007937005259840996
1306,0.32343193888664246,0.40222081542015076,0.99,0.92,0.0007937005259840996
1307,0.3234446048736572,0.4025796055793762,0.99,0.92,0.0007937005259840996
1308,0.3234199285507202,0.4030265510082245,0.99,0.92,0.0007937005259840996
1309,0.3234456777572632,0.40353021025657654,0.99,0.91,0.0007937005259840996
1310,0.3234318196773529,0.4035004675388336,0.99,0.91,0.0007937005259840996
1311,0.32343849539756775,0.40297186374664307,0.99,0.92,0.0007937005259840996
1312,0.323435515165329,0.40260574221611023,0.99,0.92,0.0007937005259840996
1313,0.32343360781669617,0.40274539589881897,0.99,0.92,0.0007937005259840996
1314,0.3234333395957947,0.40285855531692505,0.99,0.92,0.0007937005259840996
1315,0.3234303593635559,0.4030594527721405,0.99,0.92,0.0007937005259840996
1316,0.32342156767845154,0.40301430225372314,0.99,0.92,0.0007937005259840996
1317,0.32342684268951416,0.4032055139541626,0.99,0.92,0.0007937005259840996
1318,0.32342636585235596,0.4031916558742523,0.99,0.92,0.0007937005259840996
1319,0.32342851161956787,0.4029890298843384,0.99,0.92,0.0007937005259840996
1320,0.3234243392944336,0.4028526544570923,0.99,0.92,0.0007937005259840996
1321,0.3234299421310425,0.40260761976242065,0.99,0.92,0.0007937005259840996
1322,0.3234093189239502,0.4023524522781372,0.99,0.92,0.0007937005259840996
1323,0.3234212398529053,0.4021104574203491,0.99,0.92,0.0007937005259840996
1324,0.3234444856643677,0.4023098349571228,0.99,0.92,0.0007937005259840996
1325,0.32342883944511414,0.4025772511959076,0.99,0.92,0.0007937005259840996
1326,0.32344019412994385,0.4026947319507599,0.99,0.92,0.0007937005259840996
1327,0.32342711091041565,0.40224432945251465,0.99,0.92,0.0007937005259840996
1328,0.32343173027038574,0.40222617983818054,0.99,0.92,0.0007937005259840996
1329,0.32342463731765747,0.40228480100631714,0.99,0.92,0.0007937005259840996
1330,0.323417067527771,0.40204209089279175,0.99,0.92,0.0007937005259840996
1331,0.32342830300331116,0.4019542634487152,0.99,0.92,0.0007937005259840996
1332,0.32344114780426025,0.40240490436553955,0.99,0.92,0.0007937005259840996
1333,0.32341906428337097,0.4025195240974426,0.99,0.92,0.0007937005259840996
1334,0.3234277367591858,0.40285396575927734,0.99,0.92,0.0007937005259840996
1335,0.32343924045562744,0.4032539427280426,0.99,0.92,0.0007937005259840996
1336,0.3234384059906006,0.4031050205230713,0.99,0.92,0.0007937005259840996
1337,0.3234233856201172,0.40274280309677124,0.99,0.92,0.0007937005259840996
1338,0.3234291076660156,0.40269508957862854,0.99,0.92,0.0007937005259840996
1339,0.32341811060905457,0.40246695280075073,0.99,0.92,0.0007937005259840996
1340,0.32342761754989624,0.40224921703338623,0.99,0.92,0.0007937005259840996
1341,0.32342636585235596,0.4023342430591583,0.99,0.92,0.0007937005259840996
1342,0.32342633605003357,0.4024255871772766,0.99,0.92,0.0007937005259840996
1343,0.32342231273651123,0.40239429473876953,0.99,0.92,0.0007937005259840996
1344,0.3234189748764038,0.40218761563301086,0.99,0.92,0.0007937005259840996
1345,0.3234196901321411,0.4022037386894226,0.99,0.92,0.0007937005259840996
1346,0.3234173655509949,0.4023815095424652,0.99,0.92,0.0007937005259840996
1347,0.323426216840744,0.402494341135025,0.99,0.92,0.0007937005259840996
1348,0.3234155774116516,0.402421236038208,0.99,0.92,0.0007937005259840996
1349,0.32341673970222473,0.40251994132995605,0.99,0.92,0.0007937005259840996
1350,0.3234265148639679,0.4025232195854187,0.99,0.92,0.0007937005259840996
1351,0.3234277367591858,0.40247881412506104,0.99,0.92,0.0007937005259840996
1352,0.3234352171421051,0.4026915431022644,0.99,0.92,0.0007937005259840996
1353,0.3234129846096039,0.40244874358177185,0.99,0.92,0.0007937005259840996
1354,0.323419988155365,0.4023696184158325,0.99,0.92,0.0007937005259840996
1355,0.3234165906906128,0.40220195055007935,0.99,0.92,0.0007937005259840996
1356,0.32342711091041565,0.40217918157577515,0.99,0.92,0.0007937005259840996
1357,0.32342350482940674,0.4022354483604431,0.99,0.92,0.0007937005259840996
1358,0.32341453433036804,0.40235263109207153,0.99,0.92,0.0007937005259840996
1359,0.3234262764453888,0.40252456068992615,0.99,0.92,0.0007937005259840996
1360,0.3234243094921112,0.40239304304122925,0.99,0.92,0.0007937005259840996
1361,0.32341688871383667,0.4026191830635071,0.99,0.92,0.0007937005259840996
1362,0.3234178423881531,0.4025751054286957,0.99,0.92,0.0007937005259840996
1363,0.32342416048049927,0.4024949371814728,0.99,0.92,0.0007937005259840996
1364,0.3234237730503082,0.40256619453430176,0.99,0.92,0.0007937005259840996
1365,0.32342472672462463,0.40263596177101135,0.99,0.92,0.0007937005259840996
1366,0.3234127163887024,0.4024963080883026,0.99,0.92,0.0007937005259840996
1367,0.32341715693473816,0.40243926644325256,0.99,0.92,0.0007937005259840996
1368,0.32342204451560974,0.40259578824043274,0.99,0.92,0.0007937005259840996
1369,0.3234122097492218,0.4026053249835968,0.99,0.92,0.0007937005259840996
1370,0.32341399788856506,0.40249499678611755,0.99,0.92,0.0007937005259840996
1371,0.3234209418296814,0.4024958312511444,0.99,0.92,0.0007937005259840996
1372,0.3234228789806366,0.4027542769908905,0.99,0.92,0.0007937005259840996
1373,0.32342007756233215,0.4029446840286255,0.99,0.92,0.0007937005259840996
1374,0.3234194815158844,0.4028164744377136,0.99,0.92,0.0007937005259840996
1375,0.3234310448169708,0.40240150690078735,0.99,0.92,0.0007937005259840996
1376,0.32341820001602173,0.4020817279815674,0.99,0.92,0.0007937005259840996
1377,0.3234134018421173,0.40188542008399963,0.99,0.92,0.0007937005259840996
1378,0.32341891527175903,0.4019451439380646,0.99,0.92,0.0007937005259840996
1379,0.3234161138534546,0.4021419584751129,0.99,0.92,0.0007937005259840996
1380,0.3234100639820099,0.4025571048259735,0.99,0.92,0.0007937005259840996
1381,0.32341206073760986,0.40261033177375793,0.99,0.92,0.0007937005259840996
1382,0.32341307401657104,0.40254127979278564,0.99,0.92,0.0007937005259840996
1383,0.3234215974807739,0.40264153480529785,0.99,0.92,0.0007937005259840996
1384,0.32341694831848145,0.402513325214386,0.99,0.92,0.0007937005259840996
1385,0.3234100639820099,0.40243813395500183,0.99,0.92,0.0007937005259840996
1386,0.32341545820236206,0.40220099687576294,0.99,0.92,0.0007937005259840996
1387,0.3234180212020874,0.4018300175666809,0.99,0.92,0.0007937005259840996
1388,0.3234070837497711,0.4019399583339691,0.99,0.92,0.0007937005259840996
1389,0.3234139680862427,0.4024278521537781,0.99,0.92,0.0007937005259840996
1390,0.3234044313430786,0.4029279947280884,0.99,0.92,0.0007937005259840996
1391,0.32342293858528137,0.4029725193977356,0.99,0.92,0.0007937005259840996
1392,0.3234098553657532,0.40290072560310364,0.99,0.92,0.0007937005259840996
1393,0.3234281539916992,0.4025735855102539,0.99,0.92,0.0007937005259840996
1394,0.3234124481678009,0.4020345211029053,0.99,0.92,0.0007937005259840996
1395,0.32341209053993225,0.4015499949455261,0.99,0.92,0.0007937005259840996
1396,0.32341083884239197,0.40154868364334106,0.99,0.92,0.0007937005259840996
1397,0.32340890169143677,0.40177279710769653,0.99,0.92,0.0007937005259840996
1398,0.32341742515563965,0.401813805103302,0.99,0.92,0.0007937005259840996
1399,0.3234140872955322,0.4018346667289734,0.99,0.92,0.0007937005259840996
1400,0.3234189748764038,0.40210890769958496,0.99,0.92,0.0007937005259840996
1401,0.3234300911426544,0.4025241732597351,0.99,0.92,0.0007937005259840996
1402,0.32339516282081604,0.40244555473327637,0.99,0.92,0.0007937005259840996
1403,0.3234000504016876,0.4021559953689575,0.99,0.92,0.0007937005259840996
1404,0.3234066367149353,0.40178340673446655,0.99,0.92,0.0007937005259840996
1405,0.32340630888938904,0.40187621116638184,0.99,0.92,0.0007937005259840996
1406,0.3234168291091919,0.4017276465892792,0.99,0.92,0.0007937005259840996
1407,0.3234119415283203,0.4020930528640747,0.99,0.92,0.0007937005259840996
1408,0.32341980934143066,0.4024166464805603,0.99,0.92,0.0007937005259840996
1409,0.3234076201915741,0.4022795855998993,0.99,0.92,0.0006299605249474364
1410,0.3233984112739563,0.40227794647216797,0.99,0.92,0.0006299605249474364
1411,0.32341626286506653,0.40254703164100647,0.99,0.92,0.0006299605249474364
1412,0.3234051465988159,0.40228840708732605,0.99,0.92,0.0006299605249474364
1413,0.3234086334705353,0.40186238288879395,0.99,0.92,0.0006299605249474364
1414,0.3234149217605591,0.40159061551094055,0.99,0.92,0.0006299605249474364
1415,0.32340100407600403,0.4013393819332123,0.99,0.92,0.0006299605249474364
1416,0.32341086864471436,0.40162035822868347,0.99,0.92,0.0006299605249474364
1417,0.3233965337276459,0.401511549949646,0.99,0.92,0.0006299605249474364
1418,0.32340967655181885,0.4015360176563263,0.99,0.92,0.0006299605249474364
1419,0.32341238856315613,0.4017086923122406,0.99,0.92,0.0006299605249474364
1420,0.3234238922595978,0.40194588899612427,0.99,0.92,0.0006299605249474364
1421,0.3234059810638428,0.4022861123085022,0.99,0.92,0.0006299605249474364
1422,0.3234124779701233,0.4024463891983032,0.99,0.92,0.0006299605249474364
1423,0.3234090805053711,0.4020346701145172,0.99,0.92,0.0006299605249474364
1424,0.3234103322029114,0.40173375606536865,0.99,0.92,0.0006299605249474364
1425,0.3233974575996399,0.40167781710624695,0.99,0.92,0.0006299605249474364
1426,0.32340025901794434,0.4018386900424957,0.99,0.92,0.0006299605249474364
1427,0.32340726256370544,0.40162670612335205,0.99,0.92,0.0006299605249474364
1428,0.3234044313430786,0.4016549587249756,0.99,0.92,0.0006299605249474364
1429,0.32340022921562195,0.4019269049167633,0.99,0.92,0.0006299605249474364
1430,0.32340317964553833,0.40177127718925476,0.99,0.92,0.0006299605249474364
1431,0.32341468334198,0.4017168879508972,0.99,0.92,0.0006299605249474364
1432,0.32341259717941284,0.4016468822956085,0.99,0.92,0.0006299605249474364
1433,0.323394238948822,0.4017142951488495,0.99,0.92,0.0006299605249474364
1434,0.32340580224990845,0.40169182419776917,0.99,0.92,0.0006299605249474364
1435,0.3234071433544159,0.40198203921318054,0.99,0.92,0.0006299605249474364
1436,0.32339656352996826,0.4019344449043274,0.99,0.92,0.0006299605249474364
1437,0.3234005868434906,0.4020979404449463,0.99,0.92,0.0006299605249474364
1438,0.3234020173549652,0.4018693268299103,0.99,0.92,0.0006299605249474364
1439,0.3233923614025116,0.4018217921257019,0.99,0.92,0.0006299605249474364
1440,0.3233906030654907,0.4016416668891907,0.99,0.92,0.0006299605249474364
1441,0.3233867287635803,0.40109699964523315,0.99,0.92,0.0006299605249474364
1442,0.3233742117881775,0.40135037899017334,0.99,0.92,0.0006299605249474364
1443,0.323394238948822,0.40173813700675964,0.99,0.92,0.0006299605249474364
1444,0.32336941361427307,0.4019734561443329,0.99,0.92,0.0006299605249474364
1445,0.3233041763305664,0.40300503373146057,0.99,0.92,0.0006299605249474364
1446,0.3233766257762909,0.40562838315963745,0.99,0.92,0.0006299605249474364
1447,0.3233218789100647,0.40858688950538635,0.99,0.91,0.0006299605249474364
1448,0.3233112096786499,0.4143807590007782,0.99,0.89,0.0006299605249474364
1449,0.3229144811630249,0.4297248423099518,0.99,0.88,0.0006299605249474364
1450,0.3218909800052643,0.4701339602470398,0.99,0.82,0.0006299605249474364
1451,0.3193207085132599,0.5544918179512024,1.0,0.75,0.0006299605249474364
1452,0.3241380751132965,0.5424233078956604,0.99,0.73,0.0006299605249474364
1453,0.32896244525909424,0.40885135531425476,0.99,0.91,0.0006299605249474364
1454,0.3232531249523163,0.4192134439945221,0.99,0.89,0.0006299605249474364
1455,0.3250471353530884,0.44719114899635315,0.99,0.86,0.0006299605249474364
1456,0.321634978055954,0.4736976623535156,1.0,0.83,0.0006299605249474364
1457,0.31889939308166504,0.47162219882011414,1.0,0.82,0.0006299605249474364
1458,0.3212507665157318,0.4295746982097626,1.0,0.88,0.0006299605249474364
1459,0.31798842549324036,0.4237578511238098,1.0,0.89,0.0006299605249474364
1460,0.3170418441295624,0.4295567274093628,1.0,0.89,0.0006299605249474364
1461,0.31917059421539307,0.41349542140960693,1.0,0.89,0.0006299605249474364
1462,0.31698229908943176,0.41410934925079346,1.0,0.92,0.0006299605249474364
1463,0.3186752200126648,0.41574108600616455,1.0,0.91,0.0006299605249474364
1464,0.3171299695968628,0.40572795271873474,1.0,0.92,0.0006299605249474364
1465,0.3157891631126404,0.40261420607566833,1.0,0.9,0.0006299605249474364
1466,0.315479576587677,0.40506991744041443,1.0,0.9,0.0006299605249474364
1467,0.3160024583339691,0.4174274802207947,1.0,0.89,0.0006299605249474364
1468,0.31605401635169983,0.42299652099609375,1.0,0.88,0.0006299605249474364
1469,0.3157429099082947,0.41546836495399475,1.0,0.9,0.0006299605249474364
1470,0.3154450058937073,0.4102693498134613,1.0,0.91,0.0006299605249474364
1471,0.3148866891860962,0.40753352642059326,1.0,0.92,0.0006299605249474364
1472,0.3151922821998596,0.4082278311252594,1.0,0.92,0.0006299605249474364
1473,0.3150581419467926,0.40846237540245056,1.0,0.91,0.0006299605249474364
1474,0.31511932611465454,0.4018777012825012,1.0,0.92,0.0006299605249474364
1475,0.31481316685676575,0.3985486924648285,1.0,0.92,0.0006299605249474364
1476,0.3144925832748413,0.39793288707733154,1.0,0.92,0.0006299605249474364
1477,0.31431469321250916,0.3980485498905182,1.0,0.92,0.0006299605249474364
1478,0.3143291771411896,0.4006052315235138,1.0,0.92,0.0006299605249474364
1479,0.3143477439880371,0.4010425806045532,1.0,0.92,0.0006299605249474364
1480,0.3144797086715698,0.3978288173675537,1.0,0.92,0.0006299605249474364
1481,0.3143478333950043,0.39582598209381104,1.0,0.92,0.0006299605249474364
1482,0.3141897916793823,0.39568495750427246,1.0,0.92,0.0006299605249474364
1483,0.31411537528038025,0.39943790435791016,1.0,0.92,0.0006299605249474364
1484,0.3141489326953888,0.40483325719833374,1.0,0.91,0.0006299605249474364
1485,0.3140670657157898,0.4068347215652466,1.0,0.91,0.0006299605249474364
1486,0.3140415549278259,0.40307340025901794,1.0,0.91,0.0006299605249474364
1487,0.31399843096733093,0.4003165066242218,1.0,0.91,0.0006299605249474364
1488,0.31393808126449585,0.3992614448070526,1.0,0.91,0.0006299605249474364
1489,0.31392696499824524,0.398915559053421,1.0,0.91,0.0006299605249474364
1490,0.31387564539909363,0.3988392949104309,1.0,0.92,0.0006299605249474364
1491,0.3138792812824249,0.3989827334880829,1.0,0.92,0.0006299605249474364
1492,0.31385475397109985,0.3992614448070526,1.0,0.92,0.0006299605249474364
1493,0.313864141702652,0.3994763195514679,1.0,0.92,0.0006299605249474364
1494,0.31388309597969055,0.3997504711151123,1.0,0.92,0.0006299605249474364
1495,0.31385302543640137,0.400137335062027,1.0,0.91,0.0006299605249474364
1496,0.31381091475486755,0.4011547565460205,1.0,0.91,0.0006299605249474364
1497,0.3137984573841095,0.40231209993362427,1.0,0.91,0.0006299605249474364
1498,0.3137776255607605,0.4033330976963043,1.0,0.91,0.0006299605249474364
1499,0.3137904107570648,0.40350863337516785,1.0,0.91,0.0006299605249474364
1500,0.3137302100658417,0.40329650044441223,1.0,0.91,0.0006299605249474364
1501,0.3137744665145874,0.40248680114746094,1.0,0.91,0.0006299605249474364
1502,0.3138240873813629,0.4022183120250702,1.0,0.91,0.0006299605249474364
1503,0.3137267231941223,0.40141114592552185,1.0,0.91,0.0006299605249474364
1504,0.31372570991516113,0.4010891020298004,1.0,0.91,0.0006299605249474364
1505,0.31369587779045105,0.4001932144165039,1.0,0.91,0.0006299605249474364
1506,0.313731849193573,0.3995395004749298,1.0,0.91,0.0006299605249474364
1507,0.31368401646614075,0.40006810426712036,1.0,0.91,0.0006299605249474364
1508,0.31374022364616394,0.40046587586402893,1.0,0.91,0.0006299605249474364
1509,0.31368154287338257,0.40070995688438416,1.0,0.92,0.0006299605249474364
1510,0.3136613070964813,0.4010068476200104,1.0,0.92,0.0006299605249474364
1511,0.31367549300193787,0.4003182649612427,1.0,0.92,0.0006299605249474364
1512,0.3136788308620453,0.3993939459323883,1.0,0.92,0.0006299605249474364
1513,0.3136429488658905,0.39874136447906494,1.0,0.92,0.0006299605249474364
1514,0.3136645257472992,0.39851465821266174,1.0,0.92,0.0006299605249474364
1515,0.3136398196220398,0.39876556396484375,1.0,0.92,0.0006299605249474364
1516,0.3136656880378723,0.3988073468208313,1.0,0.92,0.0006299605249474364
1517,0.31367677450180054,0.3991546630859375,1.0,0.92,0.0006299605249474364
1518,0.31366026401519775,0.39998748898506165,1.0,0.92,0.0006299605249474364
1519,0.31369996070861816,0.40023037791252136,1.0,0.92,0.0006299605249474364
1520,0.3136310279369354,0.4001483917236328,1.0,0.92,0.0006299605249474364
1521,0.31369826197624207,0.3996005952358246,1.0,0.92,0.0006299605249474364
1522,0.3136564791202545,0.3992609679698944,1.0,0.92,0.0006299605249474364
1523,0.3136303126811981,0.39857131242752075,1.0,0.92,0.0006299605249474364
1524,0.31361058354377747,0.39874592423439026,1.0,0.92,0.0006299605249474364
1525,0.313618004322052,0.3987254798412323,1.0,0.92,0.0006299605249474364
1526,0.31365498900413513,0.39891064167022705,1.0,0.92,0.0006299605249474364
1527,0.3136497437953949,0.3989880084991455,1.0,0.92,0.0006299605249474364
1528,0.3135961592197418,0.39876967668533325,1.0,0.92,0.0006299605249474364
1529,0.3136020302772522,0.39865627884864807,1.0,0.92,0.0006299605249474364
1530,0.3136385381221771,0.39859509468078613,1.0,0.92,0.0006299605249474364
1531,0.313579797744751,0.3986018896102905,1.0,0.92,0.0006299605249474364
1532,0.3136049211025238,0.3985621929168701,1.0,0.92,0.0006299605249474364
1533,0.31362012028694153,0.3985111117362976,1.0,0.92,0.0006299605249474364
1534,0.3136131167411804,0.3983975648880005,1.0,0.92,0.0006299605249474364
1535,0.31363993883132935,0.3988837003707886,1.0,0.92,0.0006299605249474364
1536,0.31358984112739563,0.39854925870895386,1.0,0.92,0.0006299605249474364
1537,0.31360191106796265,0.39844271540641785,1.0,0.92,0.0006299605249474364
1538,0.31359758973121643,0.39856088161468506,1.0,0.92,0.0006299605249474364
1539,0.3135882318019867,0.3987012803554535,1.0,0.92,0.0006299605249474364
1540,0.3135964870452881,0.3985547721385956,1.0,0.92,0.0006299605249474364
1541,0.3136191666126251,0.398446649312973,1.0,0.92,0.0006299605249474364
1542,0.3135865330696106,0.39861106872558594,1.0,0.92,0.0006299605249474364
1543,0.31358420848846436,0.3986574411392212,1.0,0.92,0.0006299605249474364
1544,0.3136052191257477,0.3989531695842743,1.0,0.92,0.0006299605249474364
1545,0.31357282400131226,0.3991954028606415,1.0,0.92,0.0006299605249474364
1546,0.3136014938354492,0.3994423747062683,1.0,0.92,0.0006299605249474364
1547,0.3136088252067566,0.39937061071395874,1.0,0.92,0.0006299605249474364
1548,0.31357836723327637,0.3996216654777527,1.0,0.92,0.0006299605249474364
1549,0.3135617673397064,0.3992680311203003,1.0,0.92,0.0006299605249474364
1550,0.3135831356048584,0.39929118752479553,1.0,0.92,0.0006299605249474364
1551,0.3135780990123749,0.39901527762413025,1.0,0.92,0.0006299605249474364
1552,0.3135773539543152,0.3984576463699341,1.0,0.92,0.0006299605249474364
1553,0.3135778307914734,0.3983645737171173,1.0,0.92,0.0006299605249474364
1554,0.3135717511177063,0.3985570967197418,1.0,0.92,0.0006299605249474364
1555,0.3135696351528168,0.39894622564315796,1.0,0.92,0.0006299605249474364
1556,0.31354662775993347,0.39895394444465637,1.0,0.92,0.0006299605249474364
1557,0.31355035305023193,0.3990890085697174,1.0,0.92,0.0006299605249474364
1558,0.3135516345500946,0.39917296171188354,1.0,0.92,0.0006299605249474364
1559,0.3135836720466614,0.39921367168426514,1.0,0.92,0.0006299605249474364
1560,0.31356722116470337,0.3991974890232086,1.0,0.92,0.0006299605249474364
1561,0.31357017159461975,0.39920157194137573,1.0,0.92,0.0006299605249474364
1562,0.3135778307914734,0.3991825580596924,1.0,0.92,0.0006299605249474364
1563,0.3135521709918976,0.39948970079421997,1.0,0.92,0.0006299605249474364
1564,0.3135434091091156,0.39960068464279175,1.0,0.92,0.0006299605249474364
1565,0.313539057970047,0.39959487318992615,1.0,0.92,0.0006299605249474364
1566,0.3135296106338501,0.3993211090564728,1.0,0.92,0.0006299605249474364
1567,0.3135421872138977,0.3989124596118927,1.0,0.92,0.0006299605249474364
1568,0.3135380446910858,0.3987085223197937,1.0,0.92,0.0006299605249474364
1569,0.3135509788990021,0.39861825108528137,1.0,0.92,0.0006299605249474364
1570,0.3135707974433899,0.39852914214134216,1.0,0.92,0.0006299605249474364
1571,0.3135566711425781,0.398690402507782,1.0,0.92,0.0006299605249474364
1572,0.3135487735271454,0.3987082540988922,1.0,0.92,0.0006299605249474364
1573,0.313541442155838,0.3988257348537445,1.0,0.92,0.0006299605249474364
1574,0.31353890895843506,0.39885616302490234,1.0,0.92,0.0006299605249474364
1575,0.31356894969940186,0.3988874852657318,1.0,0.92,0.0006299605249474364
1576,0.31354907155036926,0.3987202048301697,1.0,0.92,0.0006299605249474364
1577,0.31354838609695435,0.3987767696380615,1.0,0.92,0.0006299605249474364
1578,0.3135454058647156,0.39904922246932983,1.0,0.92,0.0006299605249474364
1579,0.3135284185409546,0.3992084264755249,1.0,0.92,0.0006299605249474364
1580,0.3135262727737427,0.39923352003097534,1.0,0.92,0.0006299605249474364
1581,0.31352752447128296,0.399315744638443,1.0,0.92,0.0006299605249474364
1582,0.3135398030281067,0.3994641900062561,1.0,0.92,0.0006299605249474364
1583,0.31353700160980225,0.3992639183998108,1.0,0.92,0.0006299605249474364
1584,0.3135213255882263,0.39928725361824036,1.0,0.92,0.0006299605249474364
1585,0.3135344386100769,0.3992278277873993,1.0,0.92,0.0006299605249474364
1586,0.31354644894599915,0.3989618420600891,1.0,0.92,0.0006299605249474364
1587,0.31353598833084106,0.3989641070365906,1.0,0.92,0.0006299605249474364
1588,0.31355369091033936,0.39886975288391113,1.0,0.92,0.0006299605249474364
1589,0.3135300576686859,0.3990284204483032,1.0,0.92,0.0006299605249474364
1590,0.3135271966457367,0.39917343854904175,1.0,0.92,0.0006299605249474364
1591,0.3135421574115753,0.3990366756916046,1.0,0.92,0.0006299605249474364
1592,0.31352001428604126,0.39900097250938416,1.0,0.92,0.0006299605249474364
1593,0.3135041296482086,0.39899924397468567,1.0,0.92,0.0006299605249474364
1594,0.3135344088077545,0.3989425599575043,1.0,0.92,0.0006299605249474364
1595,0.3135014474391937,0.39907577633857727,1.0,0.92,0.0006299605249474364
1596,0.3135078549385071,0.3990631103515625,1.0,0.92,0.0006299605249474364
1597,0.313520610332489,0.3990025818347931,1.0,0.92,0.0006299605249474364
1598,0.31352096796035767,0.39906665682792664,1.0,0.92,0.0006299605249474364
1599,0.3135284185409546,0.3989139795303345,1.0,0.92,0.0006299605249474364
1600,0.3135237395763397,0.3988107740879059,1.0,0.92,0.0006299605249474364
1601,0.31349608302116394,0.39871788024902344,1.0,0.92,0.0006299605249474364
1602,0.31353944540023804,0.39883583784103394,1.0,0.92,0.0006299605249474364
1603,0.3135303258895874,0.398788720369339,1.0,0.92,0.0006299605249474364
1604,0.3134985864162445,0.39914825558662415,1.0,0.92,0.0006299605249474364
1605,0.31351542472839355,0.39904019236564636,1.0,0.92,0.0006299605249474364
1606,0.3135160803794861,0.39895305037498474,1.0,0.92,0.0006299605249474364
1607,0.31351184844970703,0.3991543650627136,1.0,0.92,0.0006299605249474364
1608,0.3135159909725189,0.39915230870246887,1.0,0.92,0.0006299605249474364
1609,0.3135071098804474,0.3991197347640991,1.0,0.92,0.0006299605249474364
1610,0.31350746750831604,0.39919430017471313,1.0,0.92,0.0006299605249474364
1611,0.31350624561309814,0.39918479323387146,1.0,0.92,0.0006299605249474364
1612,0.3135056793689728,0.39936837553977966,1.0,0.92,0.0006299605249474364
1613,0.3135053515434265,0.39939168095588684,1.0,0.92,0.0006299605249474364
1614,0.3135131597518921,0.39958980679512024,1.0,0.92,0.0006299605249474364
1615,0.3135179877281189,0.39950570464134216,1.0,0.92,0.0006299605249474364
1616,0.31352245807647705,0.3994066119194031,1.0,0.92,0.0006299605249474364
1617,0.31349849700927734,0.39917922019958496,1.0,0.92,0.0006299605249474364
1618,0.3135104775428772,0.3989163637161255,1.0,0.92,0.0006299605249474364
1619,0.3135092258453369,0.3988300561904907,1.0,0.92,0.0006299605249474364
1620,0.31350308656692505,0.39885014295578003,1.0,0.92,0.0006299605249474364
1621,0.31351929903030396,0.398826003074646,1.0,0.92,0.0006299605249474364
1622,0.3134913444519043,0.3990144431591034,1.0,0.92,0.0006299605249474364
1623,0.31351062655448914,0.39928993582725525,1.0,0.92,0.0006299605249474364
1624,0.3134923577308655,0.3993666470050812,1.0,0.92,0.0006299605249474364
1625,0.3135015070438385,0.3992651104927063,1.0,0.92,0.0006299605249474364
1626,0.3134962022304535,0.39928704500198364,1.0,0.92,0.0006299605249474364
1627,0.3135000169277191,0.39917173981666565,1.0,0.92,0.0006299605249474364
1628,0.3135007917881012,0.39882180094718933,1.0,0.92,0.0006299605249474364
1629,0.3135128319263458,0.3989057242870331,1.0,0.92,0.0006299605249474364
1630,0.31349489092826843,0.3989526331424713,1.0,0.92,0.0006299605249474364
1631,0.31349992752075195,0.39892083406448364,1.0,0.92,0.0006299605249474364
1632,0.31350165605545044,0.39916568994522095,1.0,0.92,0.0006299605249474364
1633,0.3134974241256714,0.39946234226226807,1.0,0.92,0.0006299605249474364
1634,0.3134945034980774,0.39964354038238525,1.0,0.92,0.0006299605249474364
1635,0.3134988844394684,0.3994501531124115,1.0,0.92,0.0006299605249474364
1636,0.3134903907775879,0.39938127994537354,1.0,0.92,0.0006299605249474364
1637,0.31350356340408325,0.39939743280410767,1.0,0.92,0.0006299605249474364
1638,0.31350135803222656,0.3993573486804962,1.0,0.92,0.0006299605249474364
1639,0.3134938180446625,0.39956462383270264,1.0,0.92,0.0006299605249474364
1640,0.31348592042922974,0.39971596002578735,1.0,0.92,0.0006299605249474364
1641,0.31347426772117615,0.3994961678981781,1.0,0.92,0.0006299605249474364
1642,0.31349924206733704,0.39972391724586487,1.0,0.92,0.0006299605249474364
1643,0.3134854733943939,0.39937934279441833,1.0,0.92,0.0006299605249474364
1644,0.31347036361694336,0.3992043435573578,1.0,0.92,0.0006299605249474364
1645,0.3134833574295044,0.39903876185417175,1.0,0.92,0.0006299605249474364
1646,0.3134784698486328,0.39926251769065857,1.0,0.92,0.0006299605249474364
1647,0.3134705424308777,0.3992125689983368,1.0,0.92,0.0006299605249474364
1648,0.3134804666042328,0.3992798328399658,1.0,0.92,0.0006299605249474364
1649,0.31347742676734924,0.39930620789527893,1.0,0.92,0.0006299605249474364
1650,0.3134840130805969,0.3995026648044586,1.0,0.92,0.0006299605249474364
1651,0.3134787082672119,0.3996415436267853,1.0,0.92,0.0006299605249474364
1652,0.313469797372818,0.39956021308898926,1.0,0.92,0.0006299605249474364
1653,0.31349101662635803,0.3997187316417694,1.0,0.92,0.0006299605249474364
1654,0.313485324382782,0.3996773958206177,1.0,0.92,0.0006299605249474364
1655,0.31348076462745667,0.39978447556495667,1.0,0.92,0.0006299605249474364
1656,0.31346821784973145,0.3999744653701782,1.0,0.92,0.0006299605249474364
1657,0.3134821057319641,0.39974501729011536,1.0,0.92,0.0006299605249474364
1658,0.3134714663028717,0.39989787340164185,1.0,0.92,0.0006299605249474364
1659,0.31347575783729553,0.3999421000480652,1.0,0.92,0.0006299605249474364
1660,0.31348717212677,0.4000053405761719,1.0,0.92,0.0006299605249474364
1661,0.313480406999588,0.39980682730674744,1.0,0.92,0.0006299605249474364
1662,0.31347236037254333,0.39959537982940674,1.0,0.92,0.0006299605249474364
1663,0.3134938180446625,0.39973777532577515,1.0,0.92,0.0006299605249474364
1664,0.3134671747684479,0.39974990487098694,1.0,0.92,0.0006299605249474364
1665,0.3134709298610687,0.3997111916542053,1.0,0.92,0.0006299605249474364
1666,0.3134782314300537,0.39962413907051086,1.0,0.92,0.0006299605249474364
1667,0.3134789764881134,0.39954307675361633,1.0,0.92,0.0006299605249474364
1668,0.3134802579879761,0.399611234664917,1.0,0.92,0.0006299605249474364
1669,0.31346890330314636,0.3994031846523285,1.0,0.92,0.0006299605249474364
1670,0.31346699595451355,0.39939266443252563,1.0,0.92,0.0006299605249474364
1671,0.31347155570983887,0.3993035852909088,1.0,0.92,0.0006299605249474364
1672,0.31349191069602966,0.39926666021347046,1.0,0.92,0.0006299605249474364
1673,0.3134661614894867,0.39922332763671875,1.0,0.92,0.0006299605249474364
1674,0.3134743571281433,0.3995112180709839,1.0,0.92,0.0006299605249474364
1675,0.3134743869304657,0.399562805891037,1.0,0.92,0.0006299605249474364
1676,0.3134709298610687,0.39971989393234253,1.0,0.92,0.0006299605249474364
1677,0.31346800923347473,0.3997782766819,1.0,0.92,0.0006299605249474364
1678,0.3134709298610687,0.3997713029384613,1.0,0.92,0.0006299605249474364
1679,0.3134666085243225,0.39968040585517883,1.0,0.92,0.0006299605249474364
1680,0.3134598135948181,0.39971476793289185,1.0,0.92,0.0006299605249474364
1681,0.31345391273498535,0.39973536133766174,1.0,0.92,0.0006299605249474364
1682,0.3134583830833435,0.3994975686073303,1.0,0.92,0.0006299605249474364
1683,0.31347060203552246,0.3995324373245239,1.0,0.92,0.0006299605249474364
1684,0.31345921754837036,0.3994365632534027,1.0,0.92,0.0006299605249474364
1685,0.31349021196365356,0.39931532740592957,1.0,0.92,0.0006299605249474364
1686,0.3134704530239105,0.39940041303634644,1.0,0.92,0.0006299605249474364
1687,0.3134578764438629,0.399595707654953,1.0,0.92,0.0006299605249474364
1688,0.3134731948375702,0.3997327387332916,1.0,0.92,0.0006299605249474364
1689,0.31347140669822693,0.39982178807258606,1.0,0.92,0.0006299605249474364
1690,0.31345808506011963,0.39986497163772583,1.0,0.92,0.0006299605249474364
1691,0.31346800923347473,0.3997628688812256,1.0,0.92,0.0006299605249474364
1692,0.31345340609550476,0.39949434995651245,1.0,0.92,0.0006299605249474364
1693,0.3134658932685852,0.3996966481208801,1.0,0.92,0.0006299605249474364
1694,0.31346672773361206,0.39955630898475647,1.0,0.92,0.0006299605249474364
1695,0.3134818971157074,0.3997284770011902,1.0,0.92,0.0006299605249474364
1696,0.31346815824508667,0.3998814821243286,1.0,0.92,0.0006299605249474364
1697,0.31346631050109863,0.4000397026538849,1.0,0.92,0.0006299605249474364
1698,0.31347543001174927,0.40029266476631165,1.0,0.92,0.0006299605249474364
1699,0.3134727478027344,0.40053534507751465,1.0,0.92,0.0006299605249474364
1700,0.31346049904823303,0.4004339575767517,1.0,0.92,0.0006299605249474364
1701,0.31345507502555847,0.40022239089012146,1.0,0.92,0.0006299605249474364
1702,0.3134719729423523,0.40004679560661316,1.0,0.92,0.0006299605249474364
1703,0.31344708800315857,0.40016764402389526,1.0,0.92,0.0006299605249474364
1704,0.313446968793869,0.4002034068107605,1.0,0.92,0.0006299605249474364
1705,0.3134754002094269,0.4002115726470947,1.0,0.92,0.0006299605249474364
1706,0.31345778703689575,0.40021830797195435,1.0,0.92,0.0006299605249474364
1707,0.3134583532810211,0.40016648173332214,1.0,0.92,0.0006299605249474364
1708,0.31344854831695557,0.39989662170410156,1.0,0.92,0.0006299605249474364
1709,0.31345880031585693,0.3998936116695404,1.0,0.92,0.0006299605249474364
1710,0.31347277760505676,0.39968621730804443,1.0,0.92,0.0006299605249474364
1711,0.3134751617908478,0.3996996283531189,1.0,0.92,0.0006299605249474364
1712,0.3134545087814331,0.39995425939559937,1.0,0.92,0.0006299605249474364
1713,0.3134530782699585,0.3999497592449188,1.0,0.92,0.0006299605249474364
1714,0.3134576678276062,0.4000566005706787,1.0,0.92,0.0006299605249474364
1715,0.3134658932685852,0.4001762270927429,1.0,0.92,0.0006299605249474364
1716,0.3134492337703705,0.40022027492523193,1.0,0.92,0.0006299605249474364
1717,0.31345775723457336,0.4002586305141449,1.0,0.92,0.0006299605249474364
1718,0.31344059109687805,0.40022385120391846,1.0,0.92,0.0006299605249474364
1719,0.3134628236293793,0.4001273214817047,1.0,0.92,0.0006299605249474364
1720,0.313460111618042,0.40006178617477417,1.0,0.92,0.0006299605249474364
1721,0.3134458363056183,0.3999176025390625,1.0,0.92,0.0006299605249474364
1722,0.3134511113166809,0.4000236988067627,1.0,0.92,0.0006299605249474364
1723,0.31344929337501526,0.4000224769115448,1.0,0.92,0.0006299605249474364
1724,0.3134610056877136,0.40003281831741333,1.0,0.92,0.0006299605249474364
1725,0.3134530484676361,0.40007641911506653,1.0,0.92,0.0006299605249474364
1726,0.3134429156780243,0.39994239807128906,1.0,0.92,0.0006299605249474364
1727,0.3134407103061676,0.39986294507980347,1.0,0.92,0.0006299605249474364
1728,0.31344348192214966,0.39978063106536865,1.0,0.92,0.0006299605249474364
1729,0.31344717741012573,0.39970916509628296,1.0,0.92,0.0006299605249474364
1730,0.31343740224838257,0.3995174467563629,1.0,0.92,0.0006299605249474364
1731,0.3134556710720062,0.399658739566803,1.0,0.92,0.0006299605249474364
1732,0.31345683336257935,0.39970436692237854,1.0,0.92,0.0006299605249474364
1733,0.31345123052597046,0.39971688389778137,1.0,0.92,0.0006299605249474364
1734,0.31345394253730774,0.3997902572154999,1.0,0.92,0.0006299605249474364
1735,0.31345194578170776,0.3998771905899048,1.0,0.92,0.0006299605249474364
1736,0.31346145272254944,0.3998471796512604,1.0,0.92,0.0006299605249474364
1737,0.31344977021217346,0.3996356725692749,1.0,0.92,0.0006299605249474364
1738,0.3134455382823944,0.39964812994003296,1.0,0.92,0.0006299605249474364
1739,0.31343355774879456,0.3997418284416199,1.0,0.92,0.0006299605249474364
1740,0.31344592571258545,0.3997991979122162,1.0,0.92,0.0006299605249474364
1741,0.3134497404098511,0.4000827670097351,1.0,0.92,0.0006299605249474364
1742,0.3134559094905853,0.40011143684387207,1.0,0.92,0.0006299605249474364
1743,0.31345134973526,0.40015700459480286,1.0,0.92,0.0006299605249474364
1744,0.3134513199329376,0.4000440537929535,1.0,0.92,0.0006299605249474364
1745,0.3134416341781616,0.39999979734420776,1.0,0.92,0.0006299605249474364
1746,0.3134409785270691,0.40011104941368103,1.0,0.92,0.0006299605249474364
1747,0.3134481906890869,0.4002079665660858,1.0,0.92,0.0006299605249474364
1748,0.31344175338745117,0.4002912640571594,1.0,0.92,0.0006299605249474364
1749,0.3134482204914093,0.40030911564826965,1.0,0.92,0.0006299605249474364
1750,0.3134416937828064,0.400193989276886,1.0,0.92,0.0006299605249474364
1751,0.3134555518627167,0.4002300202846527,1.0,0.92,0.0006299605249474364
1752,0.3134509027004242,0.4003504812717438,1.0,0.92,0.0006299605249474364
1753,0.31343838572502136,0.40037572383880615,1.0,0.92,0.0006299605249474364
1754,0.3134467303752899,0.4006907343864441,1.0,0.92,0.0006299605249474364
1755,0.31344136595726013,0.4007236063480377,1.0,0.92,0.0006299605249474364
1756,0.3134419620037079,0.40042364597320557,1.0,0.92,0.0006299605249474364
1757,0.31345078349113464,0.4003990888595581,1.0,0.92,0.0006299605249474364
1758,0.313444584608078,0.4001713693141937,1.0,0.92,0.0006299605249474364
1759,0.313426673412323,0.4002176523208618,1.0,0.92,0.0006299605249474364
1760,0.3134549558162689,0.40051019191741943,1.0,0.92,0.0006299605249474364
1761,0.31343796849250793,0.40041932463645935,1.0,0.92,0.0006299605249474364
1762,0.3134521543979645,0.400503009557724,1.0,0.92,0.0006299605249474364
1763,0.3134337365627289,0.4004276990890503,1.0,0.92,0.0006299605249474364
1764,0.3134302496910095,0.4003204107284546,1.0,0.92,0.0006299605249474364
1765,0.31343546509742737,0.4004173278808594,1.0,0.92,0.0006299605249474364
1766,0.3134452700614929,0.40008071064949036,1.0,0.92,0.0006299605249474364
1767,0.3134464621543884,0.3998689353466034,1.0,0.92,0.0006299605249474364
1768,0.31344538927078247,0.39993739128112793,1.0,0.92,0.0006299605249474364
1769,0.313446968793869,0.4000478684902191,1.0,0.92,0.0006299605249474364
1770,0.31343749165534973,0.4001554548740387,1.0,0.92,0.0006299605249474364
1771,0.31343400478363037,0.40011826157569885,1.0,0.92,0.0006299605249474364
1772,0.31343239545822144,0.4003171920776367,1.0,0.92,0.0006299605249474364
1773,0.3134433627128601,0.4005471169948578,1.0,0.92,0.0006299605249474364
1774,0.3134412467479706,0.4008239507675171,1.0,0.92,0.0006299605249474364
1775,0.3134341835975647,0.40060919523239136,1.0,0.92,0.0006299605249474364
1776,0.3134329617023468,0.4007366895675659,1.0,0.92,0.0006299605249474364
1777,0.3134332597255707,0.4005650281906128,1.0,0.92,0.0006299605249474364
1778,0.3134225904941559,0.40025126934051514,1.0,0.92,0.0006299605249474364
1779,0.31344953179359436,0.4000850021839142,1.0,0.92,0.0006299605249474364
1780,0.3134458661079407,0.4001190662384033,1.0,0.92,0.0006299605249474364
1781,0.3134281039237976,0.4001747965812683,1.0,0.92,0.0006299605249474364
1782,0.3134287893772125,0.40033432841300964,1.0,0.92,0.0006299605249474364
1783,0.31343239545822144,0.4006817936897278,1.0,0.92,0.0006299605249474364
1784,0.31342121958732605,0.40033966302871704,1.0,0.92,0.0006299605249474364
1785,0.3134376108646393,0.4005986154079437,1.0,0.92,0.0006299605249474364
1786,0.31342852115631104,0.4003314673900604,1.0,0.92,0.0006299605249474364
1787,0.31344014406204224,0.4001719355583191,1.0,0.92,0.0006299605249474364
1788,0.3134387135505676,0.39990589022636414,1.0,0.92,0.0006299605249474364
1789,0.313418984413147,0.39982908964157104,1.0,0.92,0.0006299605249474364
1790,0.3134406507015228,0.4000621736049652,1.0,0.92,0.0006299605249474364
1791,0.3134196400642395,0.39999309182167053,1.0,0.92,0.0006299605249474364
1792,0.3134244978427887,0.4002927839756012,1.0,0.92,0.0006299605249474364
1793,0.31344228982925415,0.400185227394104,1.0,0.92,0.0006299605249474364
1794,0.31343066692352295,0.40026676654815674,1.0,0.92,0.0006299605249474364
1795,0.31344377994537354,0.4000925123691559,1.0,0.92,0.0006299605249474364
1796,0.3134232759475708,0.40020859241485596,1.0,0.92,0.0006299605249474364
1797,0.3134213984012604,0.40014705061912537,1.0,0.92,0.0006299605249474364
1798,0.3134347200393677,0.40030428767204285,1.0,0.92,0.0006299605249474364
1799,0.31343013048171997,0.40037181973457336,1.0,0.92,0.0006299605249474364
1800,0.31342828273773193,0.4003027379512787,1.0,0.92,0.0006299605249474364
1801,0.31342223286628723,0.4002974033355713,1.0,0.92,0.0006299605249474364
1802,0.3134232759475708,0.4004855751991272,1.0,0.92,0.0006299605249474364
1803,0.31343814730644226,0.40052226185798645,1.0,0.92,0.0006299605249474364
1804,0.3134288489818573,0.4005158245563507,1.0,0.92,0.0006299605249474364
1805,0.31343257427215576,0.4005437195301056,1.0,0.92,0.0006299605249474364
1806,0.3134356439113617,0.40063828229904175,1.0,0.92,0.0006299605249474364
1807,0.31341463327407837,0.4005623161792755,1.0,0.92,0.0006299605249474364
1808,0.31342193484306335,0.40055933594703674,1.0,0.92,0.0006299605249474364
1809,0.3134264349937439,0.40052735805511475,1.0,0.92,0.0006299605249474364
1810,0.3134332001209259,0.4006569981575012,1.0,0.92,0.0006299605249474364
1811,0.31342142820358276,0.4006948173046112,1.0,0.92,0.0006299605249474364
1812,0.3134233355522156,0.40084099769592285,1.0,0.92,0.0006299605249474364
1813,0.31342166662216187,0.4007716774940491,1.0,0.92,0.0006299605249474364
1814,0.3134385347366333,0.4006294310092926,1.0,0.92,0.0006299605249474364
1815,0.31342747807502747,0.40051716566085815,1.0,0.92,0.0006299605249474364
1816,0.3134373128414154,0.4003223478794098,1.0,0.92,0.0006299605249474364
1817,0.3134251534938812,0.40020865201950073,1.0,0.92,0.0006299605249474364
1818,0.31341883540153503,0.40017926692962646,1.0,0.92,0.0006299605249474364
1819,0.3134191036224365,0.4003955125808716,1.0,0.92,0.0006299605249474364
1820,0.3134235143661499,0.4006071090698242,1.0,0.92,0.0006299605249474364
1821,0.3134137690067291,0.4005614221096039,1.0,0.92,0.0006299605249474364
1822,0.313429057598114,0.4004921317100525,1.0,0.92,0.0006299605249474364
1823,0.3134199380874634,0.40060198307037354,1.0,0.92,0.0006299605249474364
1824,0.3134249448776245,0.40023568272590637,1.0,0.92,0.0006299605249474364
1825,0.31342026591300964,0.4001891314983368,1.0,0.92,0.0006299605249474364
1826,0.3134164810180664,0.40028324723243713,1.0,0.92,0.0006299605249474364
1827,0.31342461705207825,0.4002376198768616,1.0,0.92,0.0006299605249474364
1828,0.3134201467037201,0.40029677748680115,1.0,0.92,0.0006299605249474364
1829,0.3134092092514038,0.4002833962440491,1.0,0.92,0.0006299605249474364
1830,0.3134140968322754,0.4003225266933441,1.0,0.92,0.0006299605249474364
1831,0.31341636180877686,0.40039578080177307,1.0,0.92,0.0004999999999999997
1832,0.31341153383255005,0.400513231754303,1.0,0.92,0.0004999999999999997
1833,0.313421368598938,0.4006136953830719,1.0,0.92,0.0004999999999999997
1834,0.31341353058815,0.4005321264266968,1.0,0.92,0.0004999999999999997
1835,0.3134187161922455,0.4005059003829956,1.0,0.92,0.0004999999999999997
1836,0.3134177625179291,0.40043753385543823,1.0,0.92,0.0004999999999999997
1837,0.3134227991104126,0.40032708644866943,1.0,0.92,0.0004999999999999997
1838,0.3134167790412903,0.40023890137672424,1.0,0.92,0.0004999999999999997
1839,0.3134138584136963,0.40025848150253296,1.0,0.92,0.0004999999999999997
1840,0.3134045898914337,0.40024334192276,1.0,0.92,0.0004999999999999997
1841,0.31343600153923035,0.4003845453262329,1.0,0.92,0.0004999999999999997
1842,0.31342947483062744,0.4003871977329254,1.0,0.92,0.0004999999999999997
1843,0.31341543793678284,0.4005299508571625,1.0,0.92,0.0004999999999999997
1844,0.3134129047393799,0.4007377624511719,1.0,0.92,0.0004999999999999997
1845,0.3134252429008484,0.40049752593040466,1.0,0.92,0.0004999999999999997
1846,0.31341463327407837,0.40026336908340454,1.0,0.92,0.0004999999999999997
1847,0.31341850757598877,0.4003162086009979,1.0,0.92,0.0004999999999999997
1848,0.31342267990112305,0.4000816345214844,1.0,0.92,0.0004999999999999997
1849,0.3134074807167053,0.4000958502292633,1.0,0.92,0.0004999999999999997
1850,0.3134130537509918,0.40019989013671875,1.0,0.92,0.0004999999999999997
1851,0.3134123980998993,0.40028899908065796,1.0,0.92,0.0004999999999999997
1852,0.3134264647960663,0.400356262922287,1.0,0.92,0.0004999999999999997
1853,0.31342458724975586,0.40051841735839844,1.0,0.92,0.0004999999999999997
1854,0.3134169578552246,0.4006645083427429,1.0,0.92,0.0004999999999999997
1855,0.3134201765060425,0.40053391456604004,1.0,0.92,0.0004999999999999997
1856,0.3134147524833679,0.4005660116672516,1.0,0.92,0.0004999999999999997
1857,0.3134264647960663,0.40054768323898315,1.0,0.92,0.0004999999999999997
1858,0.313411682844162,0.40056416392326355,1.0,0.92,0.0004999999999999997
1859,0.31341472268104553,0.4004417359828949,1.0,0.92,0.0004999999999999997
1860,0.31341415643692017,0.4004235565662384,1.0,0.92,0.0004999999999999997
1861,0.31341874599456787,0.4003659188747406,1.0,0.92,0.0004999999999999997
1862,0.31340453028678894,0.40054431557655334,1.0,0.92,0.0004999999999999997
1863,0.3134075999259949,0.4005890190601349,1.0,0.92,0.0004999999999999997
1864,0.31341078877449036,0.40057826042175293,1.0,0.92,0.0004999999999999997
1865,0.31341254711151123,0.40047791600227356,1.0,0.92,0.0004999999999999997
1866,0.313403844833374,0.4002006947994232,1.0,0.92,0.0004999999999999997
1867,0.31342074275016785,0.40010979771614075,1.0,0.92,0.0004999999999999997
1868,0.3134133517742157,0.4001006782054901,1.0,0.92,0.0004999999999999997
1869,0.3134056627750397,0.4001787304878235,1.0,0.92,0.0004999999999999997
1870,0.3134235441684723,0.4000926911830902,1.0,0.92,0.0004999999999999997
1871,0.31341081857681274,0.4002158045768738,1.0,0.92,0.0004999999999999997
1872,0.3134131133556366,0.40032002329826355,1.0,0.92,0.0004999999999999997
1873,0.31341955065727234,0.40036913752555847,1.0,0.92,0.0004999999999999997
1874,0.3134208619594574,0.40039923787117004,1.0,0.92,0.0004999999999999997
1875,0.31340715289115906,0.4004971385002136,1.0,0.92,0.0004999999999999997
1876,0.3134121000766754,0.4004320502281189,1.0,0.92,0.0004999999999999997
1877,0.3134109377861023,0.40056583285331726,1.0,0.92,0.0004999999999999997
1878,0.313410222530365,0.4006608724594116,1.0,0.92,0.0004999999999999997
1879,0.3134058117866516,0.40085116028785706,1.0,0.92,0.0004999999999999997
1880,0.3134104609489441,0.40084561705589294,1.0,0.92,0.0004999999999999997
1881,0.31340813636779785,0.400840163230896,1.0,0.92,0.0004999999999999997
