,train loss,val loss,train acc,val acc,lr
0,0.6897643208503723,0.6751607656478882,0.7,0.64,0.001
1,0.6677088141441345,0.6629320383071899,0.69,0.64,0.001
2,0.6484058499336243,0.6535941958427429,0.69,0.64,0.001
3,0.6318261623382568,0.6474665999412537,0.69,0.64,0.001
4,0.6183334589004517,0.6449727416038513,0.69,0.64,0.001
5,0.6086421608924866,0.6458624005317688,0.69,0.64,0.001
6,0.6031485199928284,0.6480874419212341,0.69,0.64,0.001
7,0.6004993319511414,0.6484435796737671,0.69,0.64,0.001
8,0.5973795056343079,0.644972562789917,0.69,0.64,0.001
9,0.5910905599594116,0.6378212571144104,0.69,0.64,0.001
10,0.5816841721534729,0.6289531588554382,0.7,0.63,0.001
11,0.5717819929122925,0.6208937168121338,0.7,0.6,0.001
12,0.5642647743225098,0.6152409911155701,0.75,0.64,0.001
13,0.5602390766143799,0.611809492111206,0.75,0.71,0.001
14,0.5583146810531616,0.6088694930076599,0.77,0.69,0.001
15,0.5555278658866882,0.6050603985786438,0.76,0.7,0.001
16,0.5502923727035522,0.6001561880111694,0.78,0.7,0.001
17,0.5434042811393738,0.5935238003730774,0.78,0.71,0.001
18,0.5358694791793823,0.5901420712471008,0.78,0.72,0.001
19,0.5275828838348389,0.6043224334716797,0.8,0.67,0.001
20,0.5353415012359619,0.5866175889968872,0.76,0.7,0.001
21,0.5255171060562134,0.6067559719085693,0.78,0.68,0.001
22,0.5364363789558411,0.6173661351203918,0.74,0.67,0.001
23,0.5377733707427979,0.624021589756012,0.73,0.65,0.001
24,0.5334287285804749,0.6271905899047852,0.73,0.63,0.001
25,0.526473343372345,0.6246750354766846,0.74,0.64,0.001
26,0.519691526889801,0.6155986189842224,0.75,0.65,0.001
27,0.5097229480743408,0.5998919606208801,0.77,0.67,0.001
28,0.49573832750320435,0.5799510478973389,0.81,0.7,0.001
29,0.49106040596961975,0.5691959857940674,0.82,0.72,0.001
30,0.4928373396396637,0.5733241438865662,0.81,0.71,0.001
31,0.4830292761325836,0.580746054649353,0.83,0.71,0.001
32,0.47756749391555786,0.5833418369293213,0.84,0.71,0.001
33,0.47870364785194397,0.5762459635734558,0.82,0.69,0.001
34,0.4678451120853424,0.5705212354660034,0.86,0.71,0.001
35,0.4740868806838989,0.5821945667266846,0.82,0.71,0.001
36,0.4656551480293274,0.5859944224357605,0.85,0.72,0.001
37,0.46867260336875916,0.573006808757782,0.85,0.7,0.001
38,0.4625381529331207,0.5657185912132263,0.86,0.71,0.001
39,0.4646907150745392,0.5768119692802429,0.84,0.71,0.001
40,0.4634479284286499,0.5734649300575256,0.84,0.71,0.001
41,0.46125897765159607,0.559826135635376,0.86,0.74,0.001
42,0.46073269844055176,0.5649451613426208,0.86,0.73,0.001
43,0.45512324571609497,0.5725130438804626,0.86,0.7,0.001
44,0.4560168981552124,0.5664674639701843,0.87,0.74,0.001
45,0.45268574357032776,0.5612994432449341,0.88,0.73,0.001
46,0.45380207896232605,0.5658494830131531,0.85,0.73,0.001
47,0.45043057203292847,0.567970335483551,0.88,0.71,0.001
48,0.45061442255973816,0.5611943602561951,0.88,0.75,0.001
49,0.44809210300445557,0.5575258731842041,0.88,0.75,0.001
50,0.4484541714191437,0.5612207651138306,0.87,0.74,0.001
51,0.4458169639110565,0.5649588108062744,0.88,0.72,0.001
52,0.44547662138938904,0.5623248815536499,0.88,0.73,0.001
53,0.44342997670173645,0.5583938956260681,0.88,0.73,0.001
54,0.4430830478668213,0.5595539212226868,0.88,0.73,0.001
55,0.4411916434764862,0.5622842311859131,0.88,0.74,0.001
56,0.4403820335865021,0.5606822371482849,0.88,0.74,0.001
57,0.4393131732940674,0.5558361411094666,0.88,0.73,0.001
58,0.43829646706581116,0.5537676811218262,0.88,0.72,0.001
59,0.4376799464225769,0.556496262550354,0.88,0.74,0.001
60,0.4363574683666229,0.5584260821342468,0.88,0.74,0.001
61,0.4357571005821228,0.5557841062545776,0.88,0.74,0.001
62,0.4346177279949188,0.5506799817085266,0.88,0.74,0.001
63,0.43381354212760925,0.5488344430923462,0.88,0.75,0.001
64,0.4324849843978882,0.5481951236724854,0.88,0.75,0.001
65,0.4311719536781311,0.5441975593566895,0.88,0.75,0.001
66,0.4295932352542877,0.5394260287284851,0.89,0.76,0.001
67,0.42856457829475403,0.5411173701286316,0.9,0.74,0.001
68,0.4270987808704376,0.538108229637146,0.89,0.75,0.001
69,0.42537376284599304,0.531152069568634,0.9,0.75,0.001
70,0.4250594675540924,0.5401163697242737,0.9,0.75,0.001
71,0.42577728629112244,0.530226469039917,0.89,0.76,0.001
72,0.4215804934501648,0.5211129784584045,0.9,0.78,0.001
73,0.4240367114543915,0.5414402484893799,0.89,0.77,0.001
74,0.4313431680202484,0.5276843905448914,0.88,0.78,0.001
75,0.42265403270721436,0.5172582864761353,0.89,0.79,0.001
76,0.4534703493118286,0.5272266864776611,0.86,0.78,0.001
77,0.42553138732910156,0.5440917611122131,0.88,0.76,0.001
78,0.43757984042167664,0.5196946859359741,0.88,0.77,0.001
79,0.4223564863204956,0.5152761936187744,0.9,0.79,0.001
80,0.42183929681777954,0.5295892953872681,0.89,0.76,0.001
81,0.42169052362442017,0.5339469909667969,0.9,0.76,0.001
82,0.4219239056110382,0.5234524011611938,0.9,0.78,0.001
83,0.4221106469631195,0.5257644653320312,0.89,0.77,0.001
84,0.41647884249687195,0.5318238735198975,0.89,0.76,0.001
85,0.4171214699745178,0.5273327827453613,0.89,0.77,0.001
86,0.4163597822189331,0.522660493850708,0.89,0.78,0.001
87,0.4188425838947296,0.5304449796676636,0.9,0.77,0.001
88,0.4182671308517456,0.5312032103538513,0.89,0.76,0.001
89,0.41676971316337585,0.5238102078437805,0.89,0.78,0.001
90,0.4163322150707245,0.5355914831161499,0.89,0.76,0.001
91,0.41393032670021057,0.5273025035858154,0.9,0.76,0.001
92,0.41271471977233887,0.529370129108429,0.91,0.76,0.001
93,0.41289258003234863,0.5297155976295471,0.9,0.76,0.001
94,0.41035279631614685,0.5222849249839783,0.91,0.77,0.001
95,0.41183367371559143,0.5259535908699036,0.89,0.77,0.001
96,0.4121006727218628,0.5234758257865906,0.89,0.76,0.001
97,0.40978026390075684,0.5271472334861755,0.89,0.77,0.001
98,0.4097514748573303,0.5173324346542358,0.9,0.79,0.001
99,0.41064053773880005,0.532132089138031,0.89,0.75,0.001
100,0.4159417748451233,0.5120438933372498,0.9,0.79,0.001
101,0.4277728796005249,0.5233122110366821,0.88,0.77,0.001
102,0.4132131338119507,0.5399646162986755,0.9,0.76,0.001
103,0.43008527159690857,0.5131309032440186,0.88,0.79,0.001
104,0.41768383979797363,0.5147733688354492,0.89,0.79,0.001
105,0.40956753492355347,0.5545027256011963,0.9,0.74,0.001
106,0.434291809797287,0.5177562832832336,0.87,0.79,0.001
107,0.4111050069332123,0.5087562799453735,0.9,0.78,0.001
108,0.4099832773208618,0.5105603933334351,0.9,0.78,0.001
109,0.41106507182121277,0.5244339108467102,0.9,0.78,0.001
110,0.4114532470703125,0.5118104815483093,0.9,0.79,0.001
111,0.41084274649620056,0.5064979195594788,0.9,0.8,0.001
112,0.41188621520996094,0.5299240946769714,0.9,0.77,0.001
113,0.4180959463119507,0.5265567302703857,0.89,0.78,0.001
114,0.41033387184143066,0.5079441666603088,0.9,0.8,0.001
115,0.4170498549938202,0.5102200508117676,0.89,0.79,0.001
116,0.4074472188949585,0.5324214100837708,0.9,0.76,0.001
117,0.41426223516464233,0.5167850852012634,0.89,0.77,0.001
118,0.41024425625801086,0.5119056105613708,0.9,0.78,0.001
119,0.4103661775588989,0.5173119902610779,0.89,0.8,0.001
120,0.409805029630661,0.5237160325050354,0.9,0.77,0.001
121,0.4113365113735199,0.5187647938728333,0.9,0.77,0.001
122,0.4042859673500061,0.5072585344314575,0.91,0.8,0.001
123,0.41003912687301636,0.5111563205718994,0.9,0.79,0.001
124,0.4041270315647125,0.5198314785957336,0.91,0.78,0.001
125,0.40468302369117737,0.5132381916046143,0.91,0.78,0.001
126,0.403727650642395,0.5080243945121765,0.91,0.79,0.001
127,0.4054654836654663,0.5090781450271606,0.9,0.79,0.001
128,0.4029634892940521,0.5143321752548218,0.91,0.79,0.001
129,0.40317246317863464,0.5074899792671204,0.91,0.79,0.001
130,0.4030572474002838,0.5055148005485535,0.91,0.8,0.001
131,0.4031655192375183,0.5148922204971313,0.91,0.78,0.001
132,0.40196242928504944,0.5161813497543335,0.91,0.78,0.001
133,0.4018782377243042,0.5121630430221558,0.91,0.79,0.001
134,0.40231049060821533,0.512825608253479,0.91,0.78,0.001
135,0.4024786055088043,0.5166340470314026,0.91,0.78,0.001
136,0.4010249674320221,0.5220027565956116,0.91,0.78,0.001
137,0.40230411291122437,0.5187679529190063,0.91,0.78,0.001
138,0.40142711997032166,0.5178353786468506,0.91,0.78,0.001
139,0.40180137753486633,0.5229763984680176,0.91,0.77,0.001
140,0.40114566683769226,0.5227638483047485,0.91,0.78,0.001
141,0.4015449583530426,0.5185555815696716,0.91,0.78,0.001
142,0.40073996782302856,0.5157397985458374,0.91,0.78,0.001
143,0.4008622467517853,0.5186958312988281,0.91,0.77,0.001
144,0.40012139081954956,0.5198003649711609,0.91,0.78,0.001
145,0.40052473545074463,0.5132596492767334,0.91,0.78,0.001
146,0.3997286856174469,0.5093501806259155,0.91,0.79,0.001
147,0.40021422505378723,0.5085182785987854,0.91,0.8,0.001
148,0.39992785453796387,0.5125086903572083,0.91,0.79,0.001
149,0.3996686637401581,0.5136424899101257,0.91,0.79,0.001
150,0.3997752070426941,0.5087633728981018,0.91,0.79,0.001
151,0.3993542492389679,0.507135272026062,0.91,0.8,0.001
152,0.3994993269443512,0.508541464805603,0.91,0.8,0.001
153,0.3992549180984497,0.5130512118339539,0.91,0.79,0.001
154,0.3991091847419739,0.5156688690185547,0.91,0.79,0.001
155,0.39916786551475525,0.5142946839332581,0.91,0.79,0.001
156,0.3989587724208832,0.5120518803596497,0.91,0.79,0.001
157,0.3989834189414978,0.5119436979293823,0.91,0.79,0.001
158,0.39892178773880005,0.5138405561447144,0.91,0.79,0.001
159,0.39875656366348267,0.5156551599502563,0.91,0.79,0.001
160,0.39879634976387024,0.5152847766876221,0.91,0.79,0.001
161,0.39870619773864746,0.5135340690612793,0.91,0.79,0.001
162,0.39861202239990234,0.5127618908882141,0.91,0.79,0.001
163,0.39861294627189636,0.5137939453125,0.91,0.79,0.001
164,0.3985109329223633,0.5155983567237854,0.91,0.79,0.001
165,0.3984498083591461,0.5159134864807129,0.91,0.79,0.001
166,0.39843231439590454,0.514107882976532,0.91,0.79,0.001
167,0.3983166813850403,0.5118380188941956,0.91,0.79,0.001
168,0.3982875943183899,0.511044442653656,0.91,0.79,0.001
169,0.3982471823692322,0.5117794275283813,0.91,0.79,0.001
170,0.39816898107528687,0.5127926468849182,0.91,0.79,0.001
171,0.3981407582759857,0.5126380324363708,0.91,0.79,0.001
172,0.3980766236782074,0.5116880536079407,0.91,0.79,0.001
173,0.39803779125213623,0.5111678242683411,0.91,0.79,0.001
174,0.39801129698753357,0.5115125179290771,0.91,0.79,0.001
175,0.39794957637786865,0.5118971467018127,0.91,0.79,0.001
176,0.39791610836982727,0.5113035440444946,0.91,0.79,0.001
177,0.39787757396698,0.5100066661834717,0.91,0.79,0.001
178,0.3978317677974701,0.5094013214111328,0.91,0.79,0.001
179,0.39780616760253906,0.510046124458313,0.91,0.79,0.001
180,0.39775606989860535,0.511277437210083,0.91,0.79,0.001
181,0.39771968126296997,0.5118123292922974,0.91,0.79,0.001
182,0.39768707752227783,0.5114135146141052,0.91,0.79,0.001
183,0.39764416217803955,0.5109268426895142,0.91,0.79,0.001
184,0.39761489629745483,0.511030912399292,0.91,0.79,0.001
185,0.39757364988327026,0.511482298374176,0.91,0.79,0.001
186,0.3975377380847931,0.5115779638290405,0.91,0.79,0.001
187,0.39750808477401733,0.5111750960350037,0.91,0.79,0.001
188,0.39746803045272827,0.5109570026397705,0.91,0.79,0.001
189,0.3974378705024719,0.5113648772239685,0.91,0.79,0.001
190,0.3974021077156067,0.5121526122093201,0.91,0.79,0.001
191,0.3973675072193146,0.5125782489776611,0.91,0.79,0.001
192,0.3973371386528015,0.5123450756072998,0.91,0.79,0.001
193,0.3973011076450348,0.5118615627288818,0.91,0.79,0.001
194,0.39726853370666504,0.5116480588912964,0.91,0.79,0.001
195,0.39723625779151917,0.5118265748023987,0.91,0.79,0.001
196,0.39720118045806885,0.5120570659637451,0.91,0.79,0.001
197,0.3971700668334961,0.5120152831077576,0.91,0.79,0.001
198,0.3971361815929413,0.5117762088775635,0.91,0.79,0.001
199,0.39710208773612976,0.5116931796073914,0.91,0.79,0.001
200,0.39707037806510925,0.5118520855903625,0.91,0.79,0.001
201,0.39703604578971863,0.512048065662384,0.91,0.79,0.001
202,0.39700326323509216,0.5119381546974182,0.91,0.79,0.001
203,0.39697015285491943,0.5115624666213989,0.91,0.79,0.001
204,0.3969361186027527,0.511222779750824,0.91,0.79,0.001
205,0.39690348505973816,0.5111488103866577,0.91,0.79,0.001
206,0.3968699276447296,0.511294960975647,0.91,0.79,0.001
207,0.39683619141578674,0.5113951563835144,0.91,0.79,0.001
208,0.39680245518684387,0.5113356113433838,0.91,0.79,0.001
209,0.3967684805393219,0.5111974477767944,0.91,0.79,0.001
210,0.39673441648483276,0.5111333727836609,0.91,0.79,0.001
211,0.39670026302337646,0.5111719369888306,0.91,0.79,0.001
212,0.3966650664806366,0.5111855864524841,0.91,0.79,0.001
213,0.39663058519363403,0.5110570788383484,0.91,0.79,0.001
214,0.3965951204299927,0.5108566880226135,0.91,0.79,0.001
215,0.39655959606170654,0.5107594132423401,0.91,0.79,0.001
216,0.39652374386787415,0.5108278393745422,0.91,0.79,0.001
217,0.39648735523223877,0.5109312534332275,0.91,0.79,0.001
218,0.3964501917362213,0.5109434127807617,0.91,0.79,0.001
219,0.396413117647171,0.510857343673706,0.91,0.79,0.001
220,0.3963751196861267,0.5107450485229492,0.91,0.79,0.001
221,0.3963368535041809,0.5106735825538635,0.91,0.79,0.001
222,0.396297812461853,0.5106415748596191,0.91,0.79,0.001
223,0.39625781774520874,0.5105811953544617,0.91,0.79,0.001
224,0.3962175250053406,0.5104591250419617,0.91,0.8,0.001
225,0.3961760699748993,0.5103268623352051,0.91,0.8,0.001
226,0.3961341381072998,0.5102630853652954,0.91,0.8,0.001
227,0.3960910141468048,0.5102511048316956,0.91,0.8,0.001
228,0.39604687690734863,0.510199785232544,0.91,0.8,0.001
229,0.3960021138191223,0.5100700855255127,0.91,0.8,0.001
230,0.39595577120780945,0.5098960399627686,0.91,0.81,0.001
231,0.3959083557128906,0.5097637176513672,0.91,0.81,0.001
232,0.3958594799041748,0.5096463561058044,0.91,0.81,0.001
233,0.39580926299095154,0.5095243453979492,0.91,0.81,0.001
234,0.3957572877407074,0.5093881487846375,0.91,0.81,0.001
235,0.39570385217666626,0.5092538595199585,0.91,0.81,0.001
236,0.3956482708454132,0.5091561675071716,0.91,0.81,0.001
237,0.39559102058410645,0.5090817809104919,0.91,0.81,0.001
238,0.3955309987068176,0.5090112090110779,0.91,0.81,0.001
239,0.3954690098762512,0.5089083313941956,0.91,0.81,0.001
240,0.3954041302204132,0.508802056312561,0.91,0.81,0.001
241,0.39533641934394836,0.5088074207305908,0.91,0.81,0.001
242,0.39526617527008057,0.5089237093925476,0.91,0.81,0.001
243,0.39519211649894714,0.5090898871421814,0.91,0.81,0.001
244,0.3951144814491272,0.5092388391494751,0.91,0.81,0.001
245,0.39503270387649536,0.5095929503440857,0.91,0.81,0.001
246,0.3949470520019531,0.5101189017295837,0.91,0.81,0.001
247,0.3948568105697632,0.510479748249054,0.91,0.8,0.001
248,0.39476150274276733,0.5109913945198059,0.91,0.79,0.001
249,0.3946617841720581,0.5115872621536255,0.91,0.79,0.001
250,0.3945569097995758,0.5118606686592102,0.91,0.79,0.001
251,0.3944474160671234,0.5120168924331665,0.91,0.79,0.001
252,0.3943331837654114,0.512397050857544,0.91,0.79,0.001
253,0.3942139148712158,0.5123780965805054,0.91,0.8,0.001
254,0.3940882980823517,0.5121682286262512,0.91,0.8,0.001
255,0.39395347237586975,0.512330174446106,0.91,0.79,0.001
256,0.3938061594963074,0.5124207139015198,0.91,0.79,0.001
257,0.39364445209503174,0.513270914554596,0.91,0.79,0.001
258,0.39347702264785767,0.5143524408340454,0.91,0.79,0.001
259,0.3933112323284149,0.5155556201934814,0.91,0.79,0.001
260,0.3931524157524109,0.5166420340538025,0.92,0.79,0.001
261,0.3930000364780426,0.5165631771087646,0.92,0.79,0.001
262,0.39284947514533997,0.5172924995422363,0.92,0.79,0.001
263,0.3927341401576996,0.5125126838684082,0.92,0.79,0.001
264,0.3931520879268646,0.5248525738716125,0.91,0.78,0.001
265,0.40226367115974426,0.509386420249939,0.92,0.8,0.001
266,0.4221199154853821,0.5069530010223389,0.89,0.78,0.001
267,0.40359020233154297,0.5564340353012085,0.9,0.75,0.001
268,0.49394768476486206,0.4985748529434204,0.8,0.8,0.001
269,0.4360923767089844,0.5097481608390808,0.88,0.79,0.001
270,0.4787681996822357,0.5036568641662598,0.84,0.8,0.001
271,0.4353674352169037,0.5270487070083618,0.87,0.76,0.001
272,0.42328301072120667,0.5068652629852295,0.88,0.8,0.001
273,0.4318629503250122,0.5084571242332458,0.88,0.8,0.001
274,0.4544471502304077,0.5145276784896851,0.86,0.79,0.001
275,0.46292999386787415,0.518558144569397,0.84,0.79,0.001
276,0.46396735310554504,0.5085831880569458,0.84,0.81,0.001
277,0.4592338502407074,0.5126203298568726,0.85,0.8,0.001
278,0.4548642337322235,0.5070545077323914,0.85,0.8,0.001
279,0.4516772925853729,0.4996016323566437,0.85,0.81,0.001
280,0.440583199262619,0.5029059648513794,0.86,0.8,0.001
281,0.4184820055961609,0.5410503149032593,0.89,0.77,0.001
282,0.43805110454559326,0.5893844366073608,0.87,0.7,0.001
283,0.4567248225212097,0.5819404721260071,0.87,0.72,0.001
284,0.4567979872226715,0.5273969173431396,0.87,0.78,0.001
285,0.43568846583366394,0.5159081220626831,0.87,0.78,0.001
286,0.4169483482837677,0.5083301663398743,0.89,0.8,0.001
287,0.42560654878616333,0.4988359808921814,0.88,0.8,0.001
288,0.41470572352409363,0.5005320310592651,0.89,0.81,0.001
289,0.4113406240940094,0.5136823058128357,0.9,0.79,0.001
290,0.41413044929504395,0.5187175869941711,0.89,0.79,0.001
291,0.42309123277664185,0.5194922089576721,0.88,0.78,0.001
292,0.42310506105422974,0.5263872742652893,0.88,0.77,0.001
293,0.4162093997001648,0.5228630304336548,0.9,0.78,0.001
294,0.4175131916999817,0.5107012391090393,0.91,0.79,0.001
295,0.41378170251846313,0.5096973180770874,0.91,0.8,0.001
296,0.4089302122592926,0.5063949823379517,0.89,0.8,0.001
297,0.40833163261413574,0.49459418654441833,0.9,0.81,0.001
298,0.4083220362663269,0.48869919776916504,0.9,0.82,0.001
299,0.4046342074871063,0.4919907748699188,0.9,0.81,0.001
300,0.41323772072792053,0.4882824420928955,0.9,0.82,0.001
301,0.4043530225753784,0.5061841607093811,0.9,0.8,0.001
302,0.412524938583374,0.5038235187530518,0.89,0.81,0.001
303,0.4056667387485504,0.5037606954574585,0.91,0.79,0.001
304,0.4034879207611084,0.5269916653633118,0.92,0.78,0.001
305,0.411650151014328,0.5263562202453613,0.9,0.78,0.001
306,0.402406245470047,0.5157967805862427,0.9,0.77,0.001
307,0.3964846730232239,0.5155071020126343,0.92,0.79,0.001
308,0.3965001702308655,0.5121282935142517,0.93,0.8,0.001
309,0.3975961208343506,0.5205013155937195,0.93,0.77,0.001
310,0.39418694376945496,0.5193847417831421,0.93,0.78,0.001
311,0.39568859338760376,0.4918757975101471,0.93,0.82,0.001
312,0.3922974765300751,0.48864006996154785,0.93,0.82,0.001
313,0.3955940306186676,0.4857152998447418,0.92,0.82,0.001
314,0.3910951316356659,0.4919166564941406,0.92,0.81,0.001
315,0.39045172929763794,0.49999362230300903,0.93,0.82,0.001
316,0.39236029982566833,0.4991592764854431,0.93,0.81,0.001
317,0.39268627762794495,0.49514240026474,0.93,0.81,0.001
318,0.4008510112762451,0.4868384301662445,0.92,0.81,0.001
319,0.4005098044872284,0.4810348451137543,0.92,0.83,0.001
320,0.4003453850746155,0.4789677560329437,0.92,0.83,0.001
321,0.39982926845550537,0.4786796271800995,0.92,0.84,0.001
322,0.39983585476875305,0.47857776284217834,0.92,0.84,0.001
323,0.4001939296722412,0.47772684693336487,0.92,0.84,0.001
324,0.39934757351875305,0.4796895682811737,0.92,0.83,0.001
325,0.39903977513313293,0.48124831914901733,0.92,0.82,0.001
326,0.3986894190311432,0.4776308834552765,0.92,0.84,0.001
327,0.3979862928390503,0.47808346152305603,0.92,0.84,0.001
328,0.3974733054637909,0.48041048645973206,0.92,0.82,0.001
329,0.39715126156806946,0.48205167055130005,0.92,0.82,0.001
330,0.39668822288513184,0.4829358756542206,0.92,0.83,0.001
331,0.39570552110671997,0.5031849145889282,0.92,0.81,0.001
332,0.3889710307121277,0.5153877139091492,0.93,0.79,0.001
333,0.3926451802253723,0.49997633695602417,0.92,0.81,0.001
334,0.386943519115448,0.4817034900188446,0.93,0.83,0.001
335,0.3856849670410156,0.47510573267936707,0.93,0.84,0.001
336,0.38541319966316223,0.48849228024482727,0.93,0.82,0.001
337,0.3896145224571228,0.47800081968307495,0.93,0.83,0.001
338,0.38638606667518616,0.4804186224937439,0.93,0.83,0.001
339,0.3853002190589905,0.4842582046985626,0.93,0.83,0.001
340,0.3848147988319397,0.4904327690601349,0.93,0.82,0.001
341,0.38533252477645874,0.49007105827331543,0.93,0.82,0.001
342,0.38426920771598816,0.48914802074432373,0.93,0.82,0.001
343,0.3838619291782379,0.48870450258255005,0.93,0.82,0.001
344,0.3833658993244171,0.4852955639362335,0.93,0.82,0.001
345,0.3832249939441681,0.47790810465812683,0.93,0.83,0.001
346,0.38306212425231934,0.4757266342639923,0.93,0.84,0.001
347,0.38296306133270264,0.4751242399215698,0.93,0.83,0.001
348,0.38283634185791016,0.4755266606807709,0.93,0.83,0.001
349,0.3825780749320984,0.4766138792037964,0.93,0.82,0.001
350,0.38232800364494324,0.4771825671195984,0.93,0.82,0.001
351,0.3820849359035492,0.4762835204601288,0.93,0.82,0.001
352,0.3817160129547119,0.47513964772224426,0.93,0.84,0.001
353,0.38139453530311584,0.47490692138671875,0.93,0.84,0.001
354,0.3810550272464752,0.4756549000740051,0.93,0.83,0.001
355,0.38064903020858765,0.476655513048172,0.93,0.83,0.001
356,0.38030189275741577,0.47761908173561096,0.93,0.83,0.001
357,0.37987571954727173,0.48093172907829285,0.93,0.82,0.001
358,0.37947091460227966,0.48360592126846313,0.93,0.82,0.001
359,0.37902340292930603,0.48511746525764465,0.93,0.82,0.001
360,0.3784711956977844,0.4861016571521759,0.93,0.82,0.001
361,0.37746793031692505,0.49057674407958984,0.93,0.81,0.001
362,0.3759148120880127,0.49004918336868286,0.94,0.82,0.001
363,0.40512776374816895,0.4795638918876648,0.91,0.84,0.001
364,0.42346009612083435,0.4878090023994446,0.89,0.82,0.001
365,0.4128764867782593,0.4935080409049988,0.9,0.81,0.001
366,0.436367005109787,0.5058128237724304,0.86,0.81,0.001
367,0.4124652147293091,0.5182763934135437,0.9,0.8,0.001
368,0.4264757037162781,0.5092028379440308,0.88,0.79,0.001
369,0.40360182523727417,0.5063140988349915,0.91,0.8,0.001
370,0.42431309819221497,0.5104601979255676,0.88,0.79,0.001
371,0.4216111898422241,0.5283790230751038,0.88,0.78,0.001
372,0.4304029941558838,0.5475445985794067,0.88,0.76,0.001
373,0.4265381991863251,0.5239736437797546,0.89,0.78,0.001
374,0.4046564996242523,0.5005901455879211,0.91,0.82,0.001
375,0.40490612387657166,0.5067446827888489,0.91,0.8,0.001
376,0.42181074619293213,0.5188076496124268,0.88,0.78,0.001
377,0.41071873903274536,0.5341139435768127,0.9,0.78,0.001
378,0.40798190236091614,0.5466201901435852,0.89,0.75,0.001
379,0.408265084028244,0.5460554957389832,0.91,0.75,0.001
380,0.4142473638057709,0.5546069741249084,0.9,0.76,0.001
381,0.42268088459968567,0.4955689311027527,0.89,0.81,0.001
382,0.387635201215744,0.4870203137397766,0.92,0.82,0.001
383,0.4201914668083191,0.48480069637298584,0.88,0.82,0.001
384,0.40605250000953674,0.5121327638626099,0.91,0.79,0.001
385,0.39448148012161255,0.5319302082061768,0.93,0.78,0.001
386,0.4141803979873657,0.47982797026634216,0.91,0.84,0.001
387,0.38968560099601746,0.48809540271759033,0.94,0.82,0.001
388,0.433858722448349,0.4881065785884857,0.9,0.83,0.001
389,0.45252761244773865,0.4904947578907013,0.88,0.81,0.001
390,0.4217225909233093,0.48048603534698486,0.9,0.83,0.001
391,0.3995351791381836,0.48463839292526245,0.93,0.82,0.001
392,0.3915010690689087,0.4932166635990143,0.94,0.82,0.001
393,0.4011463522911072,0.4972141981124878,0.92,0.8,0.001
394,0.41179898381233215,0.5008859038352966,0.91,0.81,0.001
395,0.40975964069366455,0.509121298789978,0.91,0.79,0.001
396,0.40425413846969604,0.5163457989692688,0.91,0.76,0.001
397,0.39244702458381653,0.5457707047462463,0.94,0.77,0.001
398,0.4285476803779602,0.5911450386047363,0.9,0.72,0.001
399,0.44760972261428833,0.5543069839477539,0.88,0.75,0.001
400,0.42022982239723206,0.5108760595321655,0.9,0.8,0.001
401,0.4049263000488281,0.4812147617340088,0.89,0.82,0.001
402,0.401673287153244,0.49409687519073486,0.91,0.81,0.001
403,0.4425623416900635,0.4863317608833313,0.87,0.82,0.001
404,0.39858391880989075,0.5102306604385376,0.91,0.8,0.001
405,0.39492127299308777,0.5357186198234558,0.91,0.76,0.001
406,0.4110583961009979,0.5327823162078857,0.9,0.77,0.001
407,0.40401944518089294,0.5068374872207642,0.92,0.8,0.001
408,0.383696585893631,0.4772333800792694,0.94,0.84,0.001
409,0.40270060300827026,0.4818698465824127,0.91,0.83,0.001
410,0.4168796241283417,0.479457288980484,0.9,0.83,0.001
411,0.41376662254333496,0.4876599907875061,0.9,0.82,0.001
412,0.3815976679325104,0.5205940008163452,0.95,0.79,0.001
413,0.3874346911907196,0.5229785442352295,0.93,0.79,0.001
414,0.40222758054733276,0.5056871175765991,0.92,0.79,0.001
415,0.38181933760643005,0.491044819355011,0.94,0.81,0.001
416,0.37853991985321045,0.47995227575302124,0.94,0.83,0.001
417,0.3894319236278534,0.5041348934173584,0.93,0.81,0.001
418,0.3802063465118408,0.5211952328681946,0.94,0.8,0.001
419,0.3970339894294739,0.5541304349899292,0.92,0.75,0.001
420,0.41314250230789185,0.5471269488334656,0.91,0.76,0.001
421,0.40347838401794434,0.4880918562412262,0.92,0.83,0.001
422,0.3769126534461975,0.47422924637794495,0.94,0.84,0.001
423,0.3951716125011444,0.47227078676223755,0.92,0.84,0.001
424,0.40441399812698364,0.47055521607398987,0.91,0.84,0.001
425,0.4032217860221863,0.4685271978378296,0.91,0.85,0.001
426,0.39193394780158997,0.4774935841560364,0.93,0.82,0.001
427,0.3781066834926605,0.4913391172885895,0.94,0.81,0.001
428,0.38062626123428345,0.502138614654541,0.94,0.79,0.001
429,0.3868657648563385,0.4731317162513733,0.94,0.84,0.001
430,0.3732588589191437,0.47352707386016846,0.95,0.84,0.001
431,0.3773537576198578,0.47651058435440063,0.94,0.84,0.001
432,0.39455413818359375,0.47459354996681213,0.91,0.84,0.001
433,0.3773593008518219,0.47448065876960754,0.94,0.84,0.001
434,0.3728097677230835,0.4869750142097473,0.95,0.82,0.001
435,0.3731803894042969,0.5039979815483093,0.95,0.79,0.001
436,0.3821124732494354,0.48768070340156555,0.94,0.81,0.001
437,0.37294116616249084,0.4662257432937622,0.95,0.85,0.001
438,0.3708639144897461,0.462571918964386,0.95,0.86,0.001
439,0.3720622956752777,0.46787625551223755,0.95,0.85,0.001
440,0.3745352029800415,0.4683435559272766,0.94,0.85,0.001
441,0.3753992021083832,0.4672861397266388,0.94,0.84,0.001
442,0.3718029260635376,0.47034698724746704,0.95,0.84,0.001
443,0.3705596923828125,0.4745413661003113,0.95,0.83,0.001
444,0.3719501793384552,0.47666874527931213,0.95,0.83,0.001
445,0.37219393253326416,0.4751708507537842,0.95,0.83,0.001
446,0.37032821774482727,0.47209349274635315,0.95,0.85,0.001
447,0.3692041337490082,0.4749643802642822,0.95,0.83,0.001
448,0.36974623799324036,0.4752337634563446,0.95,0.83,0.001
449,0.3706381916999817,0.4752316176891327,0.95,0.83,0.001
450,0.37023329734802246,0.4765506982803345,0.95,0.83,0.001
451,0.36883628368377686,0.4781583547592163,0.95,0.83,0.001
452,0.36766377091407776,0.4787623882293701,0.95,0.83,0.001
453,0.3662090003490448,0.4756539463996887,0.95,0.83,0.001
454,0.3591401278972626,0.47212615609169006,0.96,0.84,0.001
455,0.3593939244747162,0.4707849621772766,0.96,0.84,0.001
456,0.3594515919685364,0.47250330448150635,0.96,0.83,0.001
457,0.359130322933197,0.47333022952079773,0.96,0.83,0.001
458,0.3593103289604187,0.46824055910110474,0.96,0.83,0.001
459,0.35944831371307373,0.4645272195339203,0.96,0.84,0.001
460,0.35888922214508057,0.4632997214794159,0.96,0.85,0.001
461,0.3579012155532837,0.463359534740448,0.96,0.85,0.001
462,0.3572925627231598,0.46415096521377563,0.96,0.85,0.001
463,0.35720348358154297,0.4647427499294281,0.96,0.85,0.001
464,0.35713738203048706,0.46460509300231934,0.96,0.85,0.001
465,0.35689133405685425,0.4644181430339813,0.96,0.85,0.001
466,0.35705965757369995,0.4645553529262543,0.96,0.85,0.001
467,0.35687774419784546,0.464596152305603,0.96,0.84,0.001
468,0.35661575198173523,0.46422845125198364,0.96,0.84,0.001
469,0.3565896153450012,0.463713675737381,0.96,0.84,0.001
470,0.35645854473114014,0.46321457624435425,0.96,0.85,0.001
471,0.35629066824913025,0.46269917488098145,0.96,0.85,0.001
472,0.35622933506965637,0.4621525704860687,0.96,0.85,0.001
473,0.3562413156032562,0.46173807978630066,0.96,0.85,0.001
474,0.3562058210372925,0.46166637539863586,0.96,0.85,0.001
475,0.356083482503891,0.46231067180633545,0.96,0.85,0.001
476,0.3559512794017792,0.46388787031173706,0.96,0.84,0.001
477,0.3558667004108429,0.4655453562736511,0.96,0.84,0.001
478,0.3558092415332794,0.46664977073669434,0.96,0.84,0.001
479,0.3557267487049103,0.4673740863800049,0.96,0.84,0.001
480,0.3556112051010132,0.4678793251514435,0.96,0.84,0.001
481,0.3554995656013489,0.46825990080833435,0.96,0.84,0.001
482,0.35541972517967224,0.46861976385116577,0.96,0.84,0.001
483,0.35536861419677734,0.4690464437007904,0.96,0.84,0.001
484,0.3553239405155182,0.4695294499397278,0.96,0.84,0.001
485,0.3552717864513397,0.47003430128097534,0.96,0.84,0.001
486,0.3552166223526001,0.4705345034599304,0.96,0.84,0.001
487,0.35517117381095886,0.47104933857917786,0.96,0.84,0.001
488,0.3551395833492279,0.4715558588504791,0.96,0.84,0.001
489,0.3551151752471924,0.471914678812027,0.96,0.84,0.001
490,0.3550860285758972,0.4720386266708374,0.96,0.84,0.001
491,0.35504692792892456,0.4719482660293579,0.96,0.84,0.001
492,0.3550046682357788,0.47173744440078735,0.96,0.84,0.001
493,0.3549659252166748,0.4715482294559479,0.96,0.84,0.001
494,0.35493364930152893,0.4714054465293884,0.96,0.84,0.001
495,0.3549038767814636,0.4713209569454193,0.96,0.84,0.001
496,0.3548717796802521,0.4712878167629242,0.96,0.84,0.001
497,0.35483649373054504,0.4712926745414734,0.96,0.84,0.001
498,0.354801207780838,0.47132331132888794,0.96,0.84,0.001
499,0.35476818680763245,0.47135329246520996,0.96,0.84,0.001
500,0.35473889112472534,0.4713381826877594,0.96,0.84,0.001
501,0.3547116816043854,0.47126924991607666,0.96,0.85,0.001
502,0.35468465089797974,0.471109539270401,0.96,0.85,0.001
503,0.3546561300754547,0.4709179699420929,0.96,0.85,0.001
504,0.35462844371795654,0.47070831060409546,0.96,0.85,0.001
505,0.3546026945114136,0.4705372750759125,0.96,0.85,0.001
506,0.3545796573162079,0.4704025685787201,0.96,0.85,0.001
507,0.3545582890510559,0.4703361988067627,0.96,0.85,0.001
508,0.35453665256500244,0.47033077478408813,0.96,0.85,0.001
509,0.3545144200325012,0.47039759159088135,0.96,0.85,0.001
510,0.3544923663139343,0.47049927711486816,0.96,0.85,0.001
511,0.35447150468826294,0.4706573784351349,0.96,0.85,0.001
512,0.35445159673690796,0.47080934047698975,0.96,0.85,0.001
513,0.35443228483200073,0.47094857692718506,0.96,0.85,0.001
514,0.35441353917121887,0.4710484743118286,0.96,0.85,0.001
515,0.35439449548721313,0.4711056053638458,0.96,0.85,0.001
516,0.35437560081481934,0.47113537788391113,0.96,0.85,0.001
517,0.3543575704097748,0.4711630940437317,0.96,0.85,0.001
518,0.35433995723724365,0.4711974263191223,0.96,0.85,0.001
519,0.3543227016925812,0.471247136592865,0.96,0.85,0.001
520,0.3543059825897217,0.4713138937950134,0.96,0.85,0.001
521,0.3542896509170532,0.47142887115478516,0.96,0.85,0.001
522,0.3542732894420624,0.47156786918640137,0.96,0.85,0.001
523,0.35425707697868347,0.4716815948486328,0.96,0.85,0.001
524,0.3542417585849762,0.4718354046344757,0.96,0.85,0.001
525,0.3542267978191376,0.4719896614551544,0.96,0.85,0.001
526,0.35421222448349,0.4720788896083832,0.96,0.85,0.001
527,0.354198157787323,0.47215014696121216,0.96,0.85,0.001
528,0.3541841208934784,0.4721938371658325,0.96,0.85,0.001
529,0.35417038202285767,0.4722153842449188,0.96,0.85,0.001
530,0.35415709018707275,0.4722425937652588,0.96,0.85,0.001
531,0.3541441261768341,0.47225719690322876,0.96,0.85,0.001
532,0.35413146018981934,0.47229260206222534,0.96,0.85,0.001
533,0.3541191518306732,0.47235107421875,0.96,0.85,0.001
534,0.35410717129707336,0.4724312722682953,0.96,0.85,0.001
535,0.3540952801704407,0.47251927852630615,0.96,0.85,0.001
536,0.35408374667167664,0.4726037085056305,0.96,0.85,0.001
537,0.3540722727775574,0.4726882874965668,0.96,0.85,0.001
538,0.3540612757205963,0.47277969121932983,0.96,0.85,0.001
539,0.35405033826828003,0.4728543162345886,0.96,0.85,0.001
540,0.35403984785079956,0.47291481494903564,0.96,0.85,0.001
541,0.35402926802635193,0.4729486405849457,0.96,0.85,0.001
542,0.3540191650390625,0.47297531366348267,0.96,0.85,0.001
543,0.35400909185409546,0.4729803502559662,0.96,0.85,0.001
544,0.3539992570877075,0.4729667901992798,0.96,0.85,0.001
545,0.35398972034454346,0.47294875979423523,0.96,0.85,0.001
546,0.35398030281066895,0.47293639183044434,0.96,0.85,0.001
547,0.35397109389305115,0.4729347229003906,0.96,0.85,0.001
548,0.35396212339401245,0.4729483723640442,0.96,0.85,0.001
549,0.3539532721042633,0.4729430377483368,0.96,0.85,0.001
550,0.35394468903541565,0.4729614555835724,0.96,0.85,0.001
551,0.35393619537353516,0.47300633788108826,0.96,0.85,0.001
552,0.35392796993255615,0.47305625677108765,0.96,0.85,0.001
553,0.3539198935031891,0.47310078144073486,0.96,0.85,0.001
554,0.3539119362831116,0.4731530249118805,0.96,0.85,0.001
555,0.3539041578769684,0.4731960594654083,0.96,0.85,0.001
556,0.35389652848243713,0.47323623299598694,0.96,0.85,0.001
557,0.35388919711112976,0.4732709527015686,0.96,0.85,0.001
558,0.3538818657398224,0.47329264879226685,0.96,0.85,0.001
559,0.3538746237754822,0.4732961654663086,0.96,0.85,0.001
560,0.35386767983436584,0.473296582698822,0.96,0.85,0.001
561,0.3538607060909271,0.47328341007232666,0.96,0.85,0.001
562,0.3538539409637451,0.4732520580291748,0.96,0.85,0.001
563,0.35384735465049744,0.47322723269462585,0.96,0.85,0.001
564,0.35384073853492737,0.4731978476047516,0.96,0.85,0.001
565,0.3538344204425812,0.47315335273742676,0.96,0.85,0.001
566,0.3538282811641693,0.47314488887786865,0.96,0.85,0.001
567,0.3538220226764679,0.4731341600418091,0.96,0.85,0.001
568,0.35381606221199036,0.4731167256832123,0.96,0.85,0.001
569,0.3538101315498352,0.4730969965457916,0.96,0.85,0.001
570,0.3538043200969696,0.4730904698371887,0.96,0.85,0.001
571,0.35379859805107117,0.47307977080345154,0.96,0.85,0.001
572,0.3537929654121399,0.47306185960769653,0.96,0.85,0.001
573,0.3537875711917877,0.4730304479598999,0.96,0.85,0.001
574,0.3537820875644684,0.4730152487754822,0.96,0.85,0.001
575,0.3537767827510834,0.4730045199394226,0.96,0.85,0.001
576,0.3537716269493103,0.472993403673172,0.96,0.85,0.001
577,0.35376647114753723,0.47297847270965576,0.96,0.85,0.001
578,0.35376131534576416,0.47295528650283813,0.96,0.85,0.001
579,0.3537563979625702,0.4729243516921997,0.96,0.85,0.001
580,0.35375159978866577,0.4728921949863434,0.96,0.85,0.001
581,0.35374680161476135,0.4728846251964569,0.96,0.85,0.001
582,0.3537420332431793,0.4728424847126007,0.96,0.85,0.001
583,0.3537374436855316,0.47279930114746094,0.96,0.85,0.001
584,0.3537329435348511,0.4727526605129242,0.96,0.85,0.001
585,0.35372841358184814,0.47273024916648865,0.96,0.85,0.001
586,0.3537239730358124,0.4727068841457367,0.96,0.85,0.001
587,0.3537196218967438,0.47268712520599365,0.96,0.85,0.001
588,0.35371533036231995,0.4726414382457733,0.96,0.85,0.001
589,0.3537111282348633,0.472618967294693,0.96,0.85,0.001
590,0.353706955909729,0.47258245944976807,0.96,0.85,0.001
591,0.35370293259620667,0.47254765033721924,0.96,0.85,0.001
592,0.35369887948036194,0.47251662611961365,0.96,0.85,0.001
593,0.35369494557380676,0.47247380018234253,0.96,0.85,0.001
594,0.35369107127189636,0.4724368155002594,0.96,0.85,0.001
595,0.3536871671676636,0.47241508960723877,0.96,0.85,0.001
596,0.3536832928657532,0.4723813533782959,0.96,0.85,0.001
597,0.3536795377731323,0.47234946489334106,0.96,0.85,0.001
598,0.3536759316921234,0.47233349084854126,0.96,0.85,0.001
599,0.35367220640182495,0.47231239080429077,0.96,0.85,0.001
600,0.3536686301231384,0.4722917079925537,0.96,0.85,0.001
601,0.35366517305374146,0.47227928042411804,0.96,0.85,0.001
602,0.3536616861820221,0.4722507894039154,0.96,0.85,0.001
603,0.35365816950798035,0.47222578525543213,0.96,0.84,0.001
604,0.3536547124385834,0.47218209505081177,0.96,0.84,0.001
605,0.3536514639854431,0.4721655547618866,0.96,0.84,0.001
606,0.3536481559276581,0.47213810682296753,0.96,0.84,0.001
607,0.3536449074745178,0.4721212089061737,0.96,0.84,0.001
608,0.35364168882369995,0.4720933139324188,0.96,0.84,0.001
609,0.35363849997520447,0.4720810055732727,0.96,0.84,0.001
610,0.3536352813243866,0.4720487594604492,0.96,0.84,0.001
611,0.35363221168518066,0.4720269739627838,0.96,0.84,0.001
612,0.35362914204597473,0.4719974398612976,0.96,0.84,0.001
613,0.35362622141838074,0.47198814153671265,0.96,0.84,0.001
614,0.3536232113838196,0.4719661772251129,0.96,0.84,0.001
615,0.3536202609539032,0.47194766998291016,0.96,0.84,0.001
616,0.35361742973327637,0.4719478189945221,0.96,0.84,0.001
617,0.3536145091056824,0.4719366133213043,0.96,0.84,0.001
618,0.353611558675766,0.47192221879959106,0.96,0.84,0.001
619,0.3536088466644287,0.4719068109989166,0.96,0.84,0.001
620,0.35360610485076904,0.4718938171863556,0.96,0.84,0.001
621,0.353603333234787,0.4718949496746063,0.96,0.84,0.001
622,0.3536006212234497,0.47189101576805115,0.96,0.84,0.001
623,0.3535979092121124,0.47187697887420654,0.96,0.84,0.001
624,0.3535953164100647,0.47184935212135315,0.96,0.84,0.001
625,0.35359275341033936,0.4718394875526428,0.96,0.84,0.001
626,0.3535901606082916,0.47182971239089966,0.96,0.84,0.001
627,0.35358765721321106,0.4718126952648163,0.96,0.84,0.001
628,0.3535851240158081,0.4718070328235626,0.96,0.84,0.001
629,0.3535826504230499,0.47179660201072693,0.96,0.84,0.001
630,0.35358020663261414,0.47177767753601074,0.96,0.84,0.001
631,0.35357776284217834,0.4717499017715454,0.96,0.84,0.001
632,0.3535754382610321,0.4717364013195038,0.96,0.84,0.001
633,0.3535730242729187,0.47171634435653687,0.96,0.84,0.001
634,0.35357069969177246,0.4716997444629669,0.96,0.84,0.001
635,0.35356834530830383,0.4716830551624298,0.96,0.84,0.001
636,0.35356608033180237,0.4716681241989136,0.96,0.84,0.001
637,0.35356375575065613,0.47163912653923035,0.96,0.84,0.001
638,0.35356152057647705,0.4716290235519409,0.96,0.84,0.001
639,0.35355931520462036,0.47159838676452637,0.96,0.84,0.001
640,0.35355716943740845,0.47157081961631775,0.96,0.84,0.001
641,0.35355499386787415,0.47154149413108826,0.96,0.84,0.001
642,0.35355284810066223,0.47150933742523193,0.96,0.84,0.001
643,0.3535507917404175,0.47147136926651,0.96,0.84,0.001
644,0.35354870557785034,0.4714205861091614,0.96,0.84,0.001
645,0.3535466492176056,0.47136634588241577,0.96,0.84,0.001
646,0.3535446524620056,0.4713048040866852,0.96,0.84,0.001
647,0.35354262590408325,0.47123417258262634,0.96,0.84,0.001
648,0.3535405695438385,0.471170037984848,0.96,0.84,0.001
649,0.3535386323928833,0.47108346223831177,0.96,0.84,0.001
650,0.3535366356372833,0.47098565101623535,0.96,0.84,0.001
651,0.35353466868400574,0.47087913751602173,0.96,0.84,0.001
652,0.35353270173072815,0.4707513749599457,0.96,0.84,0.001
653,0.3535309135913849,0.47061625123023987,0.96,0.84,0.001
654,0.3535289764404297,0.4704528748989105,0.96,0.84,0.001
655,0.3535270690917969,0.4702763855457306,0.96,0.84,0.001
656,0.353525310754776,0.47006335854530334,0.96,0.84,0.001
657,0.35352352261543274,0.4698289632797241,0.96,0.84,0.001
658,0.3535217046737671,0.4695715606212616,0.96,0.84,0.001
659,0.3535199463367462,0.4692748785018921,0.96,0.84,0.001
660,0.35351812839508057,0.46894559264183044,0.96,0.84,0.001
661,0.35351645946502686,0.4685913324356079,0.96,0.84,0.001
662,0.35351479053497314,0.46814674139022827,0.96,0.84,0.001
663,0.35351306200027466,0.46772709488868713,0.96,0.84,0.001
664,0.35351142287254333,0.4672916531562805,0.96,0.84,0.001
665,0.35350966453552246,0.46683061122894287,0.96,0.84,0.001
666,0.35350802540779114,0.4663710296154022,0.96,0.84,0.001
667,0.353506475687027,0.465879887342453,0.96,0.84,0.001
668,0.35350483655929565,0.4654746651649475,0.96,0.84,0.001
669,0.35350313782691956,0.4650121331214905,0.96,0.85,0.001
670,0.3535015881061554,0.46455323696136475,0.96,0.85,0.001
671,0.35350000858306885,0.4641394019126892,0.96,0.85,0.001
672,0.3534984588623047,0.46380317211151123,0.96,0.85,0.001
673,0.3534969389438629,0.4634586572647095,0.96,0.85,0.001
674,0.35349535942077637,0.4631499946117401,0.96,0.85,0.001
675,0.3534938395023346,0.462892085313797,0.96,0.85,0.001
676,0.3534923493862152,0.46264663338661194,0.96,0.85,0.001
677,0.3534909188747406,0.4624447226524353,0.96,0.85,0.001
678,0.3534894585609436,0.46227169036865234,0.96,0.85,0.001
679,0.3534880578517914,0.46212998032569885,0.96,0.85,0.001
680,0.3534865975379944,0.4620048999786377,0.96,0.85,0.001
681,0.3534851372241974,0.46190398931503296,0.96,0.85,0.001
682,0.35348373651504517,0.46181026101112366,0.96,0.85,0.001
683,0.35348236560821533,0.4617372751235962,0.96,0.85,0.001
684,0.3534809947013855,0.4616713225841522,0.96,0.85,0.001
685,0.35347962379455566,0.46161749958992004,0.96,0.85,0.001
686,0.35347825288772583,0.46156954765319824,0.96,0.85,0.001
687,0.3534769117832184,0.4615333080291748,0.96,0.85,0.001
688,0.35347554087638855,0.46149879693984985,0.96,0.85,0.001
689,0.3534741699695587,0.4614705741405487,0.96,0.85,0.001
690,0.3534729480743408,0.46144741773605347,0.96,0.85,0.001
691,0.3534716069698334,0.46141988039016724,0.96,0.85,0.001
692,0.3534702658653259,0.46139809489250183,0.96,0.85,0.001
693,0.35346904397010803,0.4613819122314453,0.96,0.85,0.001
694,0.35346776247024536,0.46136200428009033,0.96,0.85,0.001
695,0.35346660017967224,0.4613470435142517,0.96,0.85,0.001
696,0.35346534848213196,0.46133193373680115,0.96,0.85,0.001
697,0.35346412658691406,0.46131378412246704,0.96,0.85,0.001
698,0.35346290469169617,0.46130305528640747,0.96,0.85,0.001
699,0.35346168279647827,0.46128860116004944,0.96,0.85,0.001
700,0.35346055030822754,0.4612833857536316,0.96,0.85,0.001
701,0.35345932841300964,0.4612710177898407,0.96,0.85,0.001
702,0.3534581661224365,0.4612678289413452,0.96,0.85,0.001
703,0.3534570336341858,0.46125516295433044,0.96,0.85,0.001
704,0.35345590114593506,0.46124380826950073,0.96,0.85,0.001
705,0.35345470905303955,0.4612334370613098,0.96,0.85,0.001
706,0.3534536063671112,0.46121424436569214,0.96,0.85,0.001
707,0.35345253348350525,0.46120956540107727,0.96,0.85,0.001
708,0.35345134139060974,0.46119773387908936,0.96,0.85,0.001
709,0.3534502387046814,0.46118536591529846,0.96,0.85,0.001
710,0.3534492254257202,0.46117451786994934,0.96,0.85,0.001
711,0.3534480631351471,0.4611639380455017,0.96,0.85,0.001
712,0.35344699025154114,0.46114957332611084,0.96,0.85,0.001
713,0.35344600677490234,0.4611416161060333,0.96,0.85,0.001
714,0.353444904088974,0.46113520860671997,0.96,0.85,0.001
715,0.3534439206123352,0.4611213803291321,0.96,0.85,0.001
716,0.35344287753105164,0.4611090421676636,0.96,0.85,0.001
717,0.35344183444976807,0.46109476685523987,0.96,0.85,0.001
718,0.3534408211708069,0.46107882261276245,0.96,0.85,0.001
719,0.3534398376941681,0.46106377243995667,0.96,0.85,0.001
720,0.3534389138221741,0.46105027198791504,0.96,0.85,0.001
721,0.3534378409385681,0.46103793382644653,0.96,0.85,0.001
722,0.3534368872642517,0.46103283762931824,0.96,0.85,0.001
723,0.3534359335899353,0.46102139353752136,0.96,0.85,0.001
724,0.3534349501132965,0.46101367473602295,0.96,0.85,0.001
725,0.3534339964389801,0.4610045254230499,0.96,0.85,0.001
726,0.3534330725669861,0.460995078086853,0.96,0.85,0.001
727,0.35343214869499207,0.4609832465648651,0.96,0.85,0.001
728,0.3534311354160309,0.4609699547290802,0.96,0.85,0.001
729,0.35343021154403687,0.46095967292785645,0.96,0.85,0.001
730,0.3534294068813324,0.4609586298465729,0.96,0.85,0.001
731,0.3534284234046936,0.4609495997428894,0.96,0.85,0.001
732,0.35342758893966675,0.4609344005584717,0.96,0.85,0.001
733,0.3534266948699951,0.4609295129776001,0.96,0.85,0.001
734,0.3534257411956787,0.4609178602695465,0.96,0.85,0.001
735,0.35342487692832947,0.46090492606163025,0.96,0.85,0.001
736,0.35342395305633545,0.4608897268772125,0.96,0.85,0.001
737,0.353423148393631,0.460875004529953,0.96,0.85,0.001
738,0.35342228412628174,0.460873007774353,0.96,0.85,0.001
739,0.35342150926589966,0.46085983514785767,0.96,0.85,0.001
740,0.35342055559158325,0.46084773540496826,0.96,0.85,0.001
741,0.3534197509288788,0.46083495020866394,0.96,0.85,0.001
742,0.35341891646385193,0.46081408858299255,0.96,0.85,0.001
743,0.35341811180114746,0.4607835114002228,0.96,0.85,0.001
744,0.3534172773361206,0.46076977252960205,0.96,0.85,0.001
745,0.3534165322780609,0.46075576543807983,0.96,0.85,0.001
746,0.35341566801071167,0.4607454538345337,0.96,0.85,0.001
747,0.353414922952652,0.460729718208313,0.96,0.85,0.001
748,0.3534141182899475,0.4607168436050415,0.96,0.85,0.001
749,0.35341331362724304,0.4607023298740387,0.96,0.85,0.001
750,0.35341253876686096,0.46067845821380615,0.96,0.85,0.001
751,0.3534117639064789,0.46066272258758545,0.96,0.85,0.001
752,0.3534109890460968,0.46065181493759155,0.96,0.85,0.001
753,0.3534102737903595,0.46063876152038574,0.96,0.85,0.001
754,0.3534095287322998,0.46062329411506653,0.96,0.85,0.001
755,0.35340872406959534,0.4606179893016815,0.96,0.85,0.001
756,0.35340797901153564,0.46061253547668457,0.96,0.85,0.001
757,0.35340726375579834,0.46060559153556824,0.96,0.85,0.001
758,0.35340654850006104,0.4605921804904938,0.96,0.85,0.001
759,0.35340577363967896,0.4605776071548462,0.96,0.85,0.001
760,0.3534051179885864,0.4605664312839508,0.96,0.85,0.001
761,0.3534044027328491,0.4605550765991211,0.96,0.85,0.001
762,0.35340365767478943,0.4605403244495392,0.96,0.85,0.001
763,0.3534029722213745,0.4605269134044647,0.96,0.85,0.001
764,0.3534022569656372,0.46051159501075745,0.96,0.85,0.001
765,0.3534015715122223,0.4605032205581665,0.96,0.85,0.001
766,0.3534008860588074,0.4604877233505249,0.96,0.85,0.001
767,0.35340023040771484,0.4604741334915161,0.96,0.85,0.001
768,0.35339951515197754,0.46045953035354614,0.96,0.85,0.001
769,0.3533988296985626,0.4604443311691284,0.96,0.85,0.001
770,0.3533981740474701,0.46042728424072266,0.96,0.85,0.001
771,0.35339754819869995,0.46041420102119446,0.96,0.85,0.001
772,0.3533969223499298,0.4603968560695648,0.96,0.85,0.001
773,0.3533962666988373,0.46037596464157104,0.96,0.85,0.001
774,0.35339558124542236,0.4603622555732727,0.96,0.85,0.001
775,0.35339489579200745,0.46034863591194153,0.96,0.85,0.001
776,0.3533942699432373,0.46032917499542236,0.96,0.85,0.001
777,0.3533935844898224,0.46031463146209717,0.96,0.85,0.001
778,0.353393018245697,0.4602932035923004,0.96,0.85,0.001
779,0.3533923625946045,0.460275262594223,0.96,0.85,0.001
780,0.35339176654815674,0.46025562286376953,0.96,0.85,0.001
781,0.35339120030403137,0.46023792028427124,0.96,0.85,0.001
782,0.35339054465293884,0.46021851897239685,0.96,0.85,0.001
783,0.3533899784088135,0.46020179986953735,0.96,0.85,0.001
784,0.3533893823623657,0.4601895809173584,0.96,0.85,0.001
785,0.35338878631591797,0.4601825773715973,0.96,0.85,0.001
786,0.3533882200717926,0.46016833186149597,0.96,0.85,0.001
787,0.35338759422302246,0.46015477180480957,0.96,0.85,0.001
788,0.3533869981765747,0.46014147996902466,0.96,0.85,0.001
789,0.35338646173477173,0.460124671459198,0.96,0.85,0.001
790,0.35338589549064636,0.4601069986820221,0.96,0.85,0.001
791,0.35338523983955383,0.4600857198238373,0.96,0.85,0.001
792,0.35338473320007324,0.4600701630115509,0.96,0.85,0.001
793,0.3533841371536255,0.46005043387413025,0.96,0.85,0.001
794,0.3533835709095001,0.4600256681442261,0.96,0.85,0.001
795,0.35338306427001953,0.4600161612033844,0.96,0.85,0.001
796,0.35338252782821655,0.4599930942058563,0.96,0.85,0.001
797,0.3533819615840912,0.45997658371925354,0.96,0.85,0.001
798,0.3533813953399658,0.4599580466747284,0.96,0.85,0.001
799,0.35338079929351807,0.4599423110485077,0.96,0.85,0.001
800,0.3533802330493927,0.4599214494228363,0.96,0.85,0.001
801,0.3533797860145569,0.45990097522735596,0.96,0.85,0.001
802,0.3533792197704315,0.45988190174102783,0.96,0.85,0.001
803,0.3533787429332733,0.45985984802246094,0.96,0.85,0.001
804,0.35337820649147034,0.4598413407802582,0.96,0.85,0.001
805,0.35337772965431213,0.45981812477111816,0.96,0.85,0.001
806,0.35337716341018677,0.45979422330856323,0.96,0.85,0.001
807,0.35337668657302856,0.4597819149494171,0.96,0.85,0.001
808,0.3533761203289032,0.45976611971855164,0.96,0.85,0.001
809,0.3533756136894226,0.45974862575531006,0.96,0.85,0.001
810,0.3533751368522644,0.4597315192222595,0.96,0.85,0.001
811,0.3533746302127838,0.4597143232822418,0.96,0.85,0.001
812,0.3533741235733032,0.4596947133541107,0.96,0.85,0.001
813,0.353373646736145,0.4596768319606781,0.96,0.85,0.001
814,0.35337314009666443,0.45965737104415894,0.96,0.85,0.001
815,0.353372722864151,0.4596346318721771,0.96,0.85,0.001
816,0.353372186422348,0.45961377024650574,0.96,0.85,0.001
817,0.353371798992157,0.45959481596946716,0.96,0.85,0.001
818,0.3533712327480316,0.4595819115638733,0.96,0.85,0.001
819,0.3533707559108734,0.45956867933273315,0.96,0.85,0.001
820,0.3533702790737152,0.4595482349395752,0.96,0.85,0.001
821,0.353369802236557,0.45953091979026794,0.96,0.85,0.001
822,0.3533693552017212,0.4595160186290741,0.96,0.85,0.001
823,0.35336893796920776,0.4594945013523102,0.96,0.85,0.001
824,0.35336849093437195,0.4594669044017792,0.96,0.85,0.001
825,0.3533680737018585,0.45945003628730774,0.96,0.85,0.001
826,0.35336756706237793,0.4594237208366394,0.96,0.85,0.001
827,0.3533671200275421,0.45939910411834717,0.96,0.85,0.001
828,0.3533667027950287,0.45937445759773254,0.96,0.85,0.001
829,0.35336628556251526,0.45935410261154175,0.96,0.85,0.001
830,0.35336580872535706,0.45932629704475403,0.96,0.85,0.001
831,0.35336539149284363,0.45930108428001404,0.96,0.85,0.001
832,0.3533649146556854,0.45927566289901733,0.96,0.85,0.001
833,0.353364497423172,0.45925000309944153,0.96,0.85,0.001
834,0.35336410999298096,0.4592231512069702,0.96,0.85,0.001
835,0.35336363315582275,0.45919713377952576,0.96,0.85,0.001
836,0.35336318612098694,0.459173321723938,0.96,0.85,0.001
837,0.3533627986907959,0.45914962887763977,0.96,0.85,0.001
838,0.35336238145828247,0.459127813577652,0.96,0.85,0.001
839,0.35336199402809143,0.45910531282424927,0.96,0.85,0.001
840,0.3533616364002228,0.4590786397457123,0.96,0.85,0.001
841,0.35336124897003174,0.4590637981891632,0.96,0.85,0.001
842,0.35336074233055115,0.4590379595756531,0.96,0.85,0.001
843,0.3533603549003601,0.45901310443878174,0.96,0.85,0.001
844,0.3533599078655243,0.45899707078933716,0.96,0.85,0.001
845,0.353359580039978,0.4589692950248718,0.96,0.85,0.001
846,0.3533591330051422,0.45894405245780945,0.96,0.85,0.001
847,0.35335877537727356,0.45892104506492615,0.96,0.85,0.001
848,0.35335835814476013,0.4589001536369324,0.96,0.85,0.001
849,0.3533580005168915,0.45887255668640137,0.96,0.85,0.001
850,0.3533577024936676,0.4588506817817688,0.96,0.85,0.001
851,0.3533572256565094,0.4588290750980377,0.96,0.85,0.001
852,0.35335689783096313,0.45880526304244995,0.96,0.85,0.001
853,0.3533565104007721,0.4587815999984741,0.96,0.85,0.001
854,0.35335612297058105,0.4587567448616028,0.96,0.85,0.001
855,0.35335567593574524,0.4587303102016449,0.96,0.85,0.001
856,0.35335537791252136,0.45870673656463623,0.96,0.85,0.001
857,0.35335496068000793,0.4586901366710663,0.96,0.85,0.001
858,0.3533546030521393,0.4586648643016815,0.96,0.85,0.001
859,0.353354275226593,0.45864033699035645,0.96,0.85,0.001
860,0.353353887796402,0.45861342549324036,0.96,0.85,0.001
861,0.3533535301685333,0.458586722612381,0.96,0.85,0.001
862,0.3533531427383423,0.4585522413253784,0.96,0.85,0.001
863,0.3533529043197632,0.4585295021533966,0.96,0.85,0.001
864,0.35335254669189453,0.4585023820400238,0.96,0.85,0.001
865,0.3533521294593811,0.4584727883338928,0.96,0.85,0.001
866,0.3533517122268677,0.45844435691833496,0.96,0.85,0.001
867,0.3533514440059662,0.4584196209907532,0.96,0.85,0.001
868,0.35335108637809753,0.45839211344718933,0.96,0.85,0.001
869,0.3533507287502289,0.45836371183395386,0.96,0.85,0.001
870,0.35335037112236023,0.4583298861980438,0.96,0.85,0.001
871,0.35335013270378113,0.45830562710762024,0.96,0.85,0.001
872,0.3533497154712677,0.45828211307525635,0.96,0.85,0.001
873,0.35334938764572144,0.4582531452178955,0.96,0.85,0.001
874,0.3533490300178528,0.45822563767433167,0.96,0.85,0.001
875,0.3533487319946289,0.45819586515426636,0.96,0.85,0.001
876,0.35334837436676025,0.45816901326179504,0.96,0.85,0.001
877,0.353348046541214,0.45813795924186707,0.96,0.85,0.001
878,0.3533477485179901,0.4581131637096405,0.96,0.85,0.001
879,0.35334742069244385,0.45808741450309753,0.96,0.85,0.001
880,0.3533470034599304,0.45806124806404114,0.96,0.85,0.001
881,0.3533467948436737,0.4580322504043579,0.96,0.85,0.001
882,0.35334646701812744,0.4580060839653015,0.96,0.85,0.001
883,0.3533461391925812,0.4579784870147705,0.96,0.85,0.001
884,0.3533458709716797,0.45795193314552307,0.96,0.85,0.001
885,0.35334551334381104,0.4579208493232727,0.96,0.85,0.001
886,0.3533453047275543,0.4578956365585327,0.96,0.85,0.001
887,0.3533449172973633,0.4578775465488434,0.96,0.85,0.001
888,0.3533446490764618,0.4578506350517273,0.96,0.85,0.001
889,0.3533443510532379,0.45782309770584106,0.96,0.85,0.001
890,0.35334405303001404,0.4577901065349579,0.96,0.85,0.001
891,0.3533436954021454,0.4577694237232208,0.96,0.85,0.001
892,0.3533433675765991,0.45773714780807495,0.96,0.85,0.001
893,0.35334312915802,0.45770320296287537,0.96,0.85,0.001
894,0.35334277153015137,0.4576793313026428,0.96,0.85,0.001
895,0.3533425033092499,0.45764416456222534,0.96,0.85,0.001
896,0.3533422350883484,0.4576122760772705,0.96,0.85,0.001
897,0.3533419072628021,0.45757660269737244,0.96,0.85,0.001
898,0.353341668844223,0.4575449228286743,0.96,0.85,0.001
899,0.35334134101867676,0.45750996470451355,0.96,0.85,0.001
900,0.3533410131931305,0.45748576521873474,0.96,0.85,0.001
901,0.3533408045768738,0.4574581980705261,0.96,0.85,0.001
902,0.3533405363559723,0.45742884278297424,0.96,0.85,0.001
903,0.3533402383327484,0.4574061632156372,0.96,0.85,0.001
904,0.35333991050720215,0.4573781490325928,0.96,0.85,0.001
905,0.35333964228630066,0.4573463797569275,0.96,0.85,0.001
906,0.35333943367004395,0.4573154151439667,0.96,0.85,0.001
907,0.3533391058444977,0.4572836756706238,0.96,0.85,0.001
908,0.3533388078212738,0.4572480320930481,0.96,0.85,0.001
909,0.3533385396003723,0.4572196304798126,0.96,0.85,0.001
910,0.3533382713794708,0.45718914270401,0.96,0.85,0.001
911,0.3533380627632141,0.4571598470211029,0.96,0.85,0.001
912,0.3533377945423126,0.45713353157043457,0.96,0.85,0.001
913,0.35333752632141113,0.4571009576320648,0.96,0.85,0.001
914,0.35333725810050964,0.45707404613494873,0.96,0.85,0.001
915,0.35333698987960815,0.45704060792922974,0.96,0.85,0.001
916,0.35333675146102905,0.4570099711418152,0.96,0.85,0.001
917,0.35333648324012756,0.45697999000549316,0.96,0.85,0.001
918,0.3533362150192261,0.45695316791534424,0.96,0.85,0.001
919,0.3533359467983246,0.45692721009254456,0.96,0.85,0.001
920,0.3533356487751007,0.45690521597862244,0.96,0.85,0.001
921,0.3533354103565216,0.4568783640861511,0.96,0.85,0.001
922,0.3533351421356201,0.4568459391593933,0.96,0.85,0.001
923,0.3533349633216858,0.4568195343017578,0.96,0.85,0.001
924,0.3533346951007843,0.4567930996417999,0.96,0.85,0.001
925,0.3533344268798828,0.45676499605178833,0.96,0.85,0.001
926,0.3533341586589813,0.4567301869392395,0.96,0.85,0.001
927,0.353333979845047,0.4566971957683563,0.96,0.85,0.001
928,0.3533337414264679,0.45666787028312683,0.96,0.85,0.001
929,0.3533334732055664,0.45663344860076904,0.96,0.85,0.0007937005259840996
930,0.3533332049846649,0.4566057622432709,0.96,0.85,0.0007937005259840996
931,0.353333055973053,0.4565812945365906,0.96,0.85,0.0007937005259840996
932,0.35333287715911865,0.4565526247024536,0.96,0.85,0.0007937005259840996
933,0.35333263874053955,0.45652705430984497,0.96,0.85,0.0007937005259840996
934,0.35333251953125,0.4564990699291229,0.96,0.85,0.0007937005259840996
935,0.3533322513103485,0.4564822018146515,0.96,0.85,0.0007937005259840996
936,0.35333216190338135,0.45645663142204285,0.96,0.85,0.0007937005259840996
937,0.35333192348480225,0.4564312994480133,0.96,0.85,0.0007937005259840996
938,0.3533317446708679,0.4564037621021271,0.96,0.85,0.0007937005259840996
939,0.3533315658569336,0.45636847615242004,0.96,0.85,0.0007937005259840996
940,0.35333138704299927,0.45635464787483215,0.96,0.85,0.0007937005259840996
941,0.35333114862442017,0.45633089542388916,0.96,0.85,0.0007937005259840996
942,0.35333096981048584,0.45630505681037903,0.96,0.85,0.0007937005259840996
943,0.3533308506011963,0.4562777280807495,0.96,0.85,0.0007937005259840996
944,0.3533306121826172,0.45625245571136475,0.96,0.85,0.0007937005259840996
945,0.3533303737640381,0.456229031085968,0.96,0.85,0.0007937005259840996
946,0.3533303141593933,0.45620667934417725,0.96,0.85,0.0007937005259840996
947,0.3533300459384918,0.45618197321891785,0.96,0.85,0.0007937005259840996
948,0.35332992672920227,0.4561547338962555,0.96,0.85,0.0007937005259840996
949,0.35332974791526794,0.45613014698028564,0.96,0.85,0.0007937005259840996
950,0.35332953929901123,0.45610663294792175,0.96,0.85,0.0007937005259840996
951,0.35332930088043213,0.4560849070549011,0.96,0.85,0.0007937005259840996
952,0.35332921147346497,0.45606452226638794,0.96,0.85,0.0007937005259840996
953,0.353329062461853,0.4560427963733673,0.96,0.85,0.0007937005259840996
954,0.3533288538455963,0.4560193717479706,0.96,0.85,0.0007937005259840996
955,0.3533287048339844,0.45599573850631714,0.96,0.85,0.0007937005259840996
956,0.35332852602005005,0.45597508549690247,0.96,0.85,0.0007937005259840996
957,0.3533284068107605,0.4559519290924072,0.96,0.85,0.0007937005259840996
958,0.3533281087875366,0.4559309780597687,0.96,0.85,0.0007937005259840996
959,0.35332798957824707,0.45590901374816895,0.96,0.85,0.0007937005259840996
960,0.35332784056663513,0.45588284730911255,0.96,0.85,0.0007937005259840996
961,0.3533276617527008,0.4558600187301636,0.96,0.85,0.0007937005259840996
962,0.3533274829387665,0.4558388888835907,0.96,0.85,0.0007937005259840996
963,0.35332733392715454,0.45581692457199097,0.96,0.85,0.0007937005259840996
964,0.3533271551132202,0.45580336451530457,0.96,0.85,0.0007937005259840996
965,0.35332703590393066,0.45578300952911377,0.96,0.85,0.0007937005259840996
966,0.35332682728767395,0.45576608180999756,0.96,0.85,0.0007937005259840996
967,0.35332661867141724,0.4557381868362427,0.96,0.85,0.0007937005259840996
968,0.3533264994621277,0.4557144045829773,0.96,0.85,0.0007937005259840996
969,0.35332635045051575,0.4556906223297119,0.96,0.85,0.0007937005259840996
970,0.35332614183425903,0.4556679129600525,0.96,0.85,0.0007937005259840996
971,0.3533260226249695,0.45564648509025574,0.96,0.85,0.0007937005259840996
972,0.35332584381103516,0.45562535524368286,0.96,0.85,0.0007937005259840996
973,0.35332566499710083,0.4556003212928772,0.96,0.85,0.0007937005259840996
974,0.35332557559013367,0.45556819438934326,0.96,0.85,0.0007937005259840996
975,0.35332539677619934,0.4555421769618988,0.96,0.85,0.0007937005259840996
976,0.3533252477645874,0.4555171728134155,0.96,0.85,0.0007937005259840996
977,0.3533250689506531,0.4554940462112427,0.96,0.85,0.0007937005259840996
978,0.35332489013671875,0.4554702341556549,0.96,0.85,0.0007937005259840996
979,0.3533247411251068,0.45544666051864624,0.96,0.85,0.0007937005259840996
980,0.3533245325088501,0.4554199278354645,0.96,0.85,0.0007937005259840996
981,0.3533244729042053,0.4553973376750946,0.96,0.85,0.0007937005259840996
982,0.3533243238925934,0.455372154712677,0.96,0.85,0.0007937005259840996
983,0.35332417488098145,0.45535796880722046,0.96,0.85,0.0007937005259840996
984,0.3533240258693695,0.45533204078674316,0.96,0.85,0.0007937005259840996
985,0.3533238470554352,0.4553068280220032,0.96,0.85,0.0007937005259840996
986,0.35332363843917847,0.45528069138526917,0.96,0.85,0.0007937005259840996
987,0.3533235192298889,0.45525768399238586,0.96,0.85,0.0007937005259840996
988,0.353323370218277,0.4552338719367981,0.96,0.85,0.0007937005259840996
989,0.3533232510089874,0.45520931482315063,0.96,0.85,0.0007937005259840996
990,0.3533230721950531,0.45519551634788513,0.96,0.85,0.0007937005259840996
991,0.3533228933811188,0.4551733434200287,0.96,0.85,0.0007937005259840996
992,0.35332274436950684,0.4551519453525543,0.96,0.85,0.0007937005259840996
993,0.3533225953578949,0.4551314115524292,0.96,0.85,0.0007937005259840996
994,0.35332244634628296,0.45510920882225037,0.96,0.85,0.0007937005259840996
995,0.3533223271369934,0.45508629083633423,0.96,0.85,0.0007937005259840996
996,0.3533221483230591,0.45506370067596436,0.96,0.85,0.0007937005259840996
997,0.35332199931144714,0.45504382252693176,0.96,0.85,0.0007937005259840996
998,0.35332179069519043,0.4550218880176544,0.96,0.85,0.0007937005259840996
999,0.35332173109054565,0.45499950647354126,0.96,0.85,0.0007937005259840996
1000,0.3533215820789337,0.4549737870693207,0.96,0.85,0.0007937005259840996
1001,0.35332149267196655,0.45494934916496277,0.96,0.85,0.0007937005259840996
1002,0.35332125425338745,0.4549283981323242,0.96,0.85,0.0007937005259840996
1003,0.3533211648464203,0.45490360260009766,0.96,0.85,0.0007937005259840996
1004,0.35332104563713074,0.4548807442188263,0.96,0.85,0.0007937005259840996
1005,0.3533209264278412,0.45485901832580566,0.96,0.85,0.0007937005259840996
1006,0.35332077741622925,0.4548357427120209,0.96,0.85,0.0007937005259840996
1007,0.35332056879997253,0.45481449365615845,0.96,0.85,0.0007937005259840996
1008,0.35332047939300537,0.4547925889492035,0.96,0.85,0.0007937005259840996
1009,0.35332027077674866,0.45476749539375305,0.96,0.85,0.0007937005259840996
1010,0.3533201217651367,0.4547499418258667,0.96,0.86,0.0007937005259840996
1011,0.35332003235816956,0.4547320306301117,0.96,0.86,0.0007937005259840996
1012,0.3533198833465576,0.4547101557254791,0.96,0.86,0.0007937005259840996
1013,0.35331982374191284,0.4546905755996704,0.96,0.86,0.0007937005259840996
1014,0.35331961512565613,0.45467236638069153,0.96,0.86,0.0007937005259840996
1015,0.3533194661140442,0.4546527862548828,0.96,0.86,0.0007937005259840996
1016,0.35331931710243225,0.4546317160129547,0.96,0.86,0.0007937005259840996
1017,0.3533191680908203,0.454621821641922,0.96,0.86,0.0007937005259840996
1018,0.35331904888153076,0.45460227131843567,0.96,0.86,0.0007937005259840996
1019,0.353318989276886,0.45458370447158813,0.96,0.86,0.0007937005259840996
1020,0.3533187806606293,0.454559862613678,0.96,0.86,0.0007937005259840996
1021,0.3533186614513397,0.45454171299934387,0.96,0.86,0.0007937005259840996
1022,0.3533185124397278,0.4545213282108307,0.96,0.86,0.0007937005259840996
1023,0.35331836342811584,0.4544961154460907,0.96,0.86,0.0007937005259840996
1024,0.3533182144165039,0.4544751048088074,0.96,0.86,0.0007937005259840996
1025,0.35331806540489197,0.4544526934623718,0.96,0.86,0.0007937005259840996
1026,0.3533180356025696,0.4544311761856079,0.96,0.86,0.0007937005259840996
1027,0.3533177971839905,0.45441120862960815,0.96,0.86,0.0007937005259840996
1028,0.3533177077770233,0.45438918471336365,0.96,0.86,0.0007937005259840996
1029,0.35331761837005615,0.4543680250644684,0.96,0.86,0.0007937005259840996
1030,0.3533174395561218,0.45434778928756714,0.96,0.86,0.0007937005259840996
1031,0.35331735014915466,0.45432889461517334,0.96,0.86,0.0007937005259840996
1032,0.35331717133522034,0.4543056786060333,0.96,0.86,0.0007937005259840996
1033,0.35331711173057556,0.45428401231765747,0.96,0.86,0.0007937005259840996
1034,0.35331690311431885,0.4542662501335144,0.96,0.86,0.0007937005259840996
1035,0.3533168435096741,0.4542492628097534,0.96,0.86,0.0007937005259840996
1036,0.35331669449806213,0.4542279839515686,0.96,0.86,0.0007937005259840996
1037,0.3533165752887726,0.4542061686515808,0.96,0.86,0.0007937005259840996
1038,0.35331645607948303,0.4541858732700348,0.96,0.86,0.0007937005259840996
1039,0.3533163368701935,0.454163134098053,0.96,0.86,0.0007937005259840996
1040,0.35331615805625916,0.4541468918323517,0.96,0.86,0.0007937005259840996
1041,0.3533160388469696,0.45412659645080566,0.96,0.86,0.0007937005259840996
1042,0.35331588983535767,0.4541064500808716,0.96,0.86,0.0006299605249474364
1043,0.3533158004283905,0.4540923237800598,0.96,0.86,0.0006299605249474364
1044,0.35331571102142334,0.45408084988594055,0.96,0.86,0.0006299605249474364
1045,0.3533155918121338,0.45406466722488403,0.96,0.86,0.0006299605249474364
1046,0.3533155024051666,0.4540560841560364,0.96,0.86,0.0006299605249474364
1047,0.35331544280052185,0.4540380835533142,0.96,0.86,0.0006299605249474364
1048,0.3533152639865875,0.4540202021598816,0.96,0.86,0.0006299605249474364
1049,0.35331523418426514,0.45400387048721313,0.96,0.86,0.0006299605249474364
1050,0.3533151149749756,0.453985333442688,0.96,0.86,0.0006299605249474364
1051,0.35331499576568604,0.45396995544433594,0.96,0.86,0.0006299605249474364
1052,0.35331493616104126,0.45395317673683167,0.96,0.86,0.0006299605249474364
1053,0.3533148169517517,0.4539385139942169,0.96,0.86,0.0006299605249474364
1054,0.35331466794013977,0.4539230763912201,0.96,0.86,0.0006299605249474364
1055,0.3533146381378174,0.45390745997428894,0.96,0.86,0.0006299605249474364
1056,0.3533145487308502,0.4538925290107727,0.96,0.86,0.0006299605249474364
1057,0.35331451892852783,0.4538784325122833,0.96,0.86,0.0006299605249474364
1058,0.3533143699169159,0.45386773347854614,0.96,0.86,0.0006299605249474364
1059,0.35331428050994873,0.453847199678421,0.96,0.86,0.0006299605249474364
1060,0.3533141314983368,0.45383334159851074,0.96,0.86,0.0006299605249474364
1061,0.3533141016960144,0.4538191556930542,0.96,0.86,0.0006299605249474364
1062,0.35331398248672485,0.4538043141365051,0.96,0.86,0.0006299605249474364
1063,0.3533138930797577,0.4537915289402008,0.96,0.86,0.0006299605249474364
1064,0.3533138036727905,0.4537758529186249,0.96,0.86,0.0006299605249474364
1065,0.353313684463501,0.45376065373420715,0.96,0.86,0.0006299605249474364
1066,0.3533135652542114,0.45374661684036255,0.96,0.86,0.0006299605249474364
1067,0.35331347584724426,0.4537260830402374,0.96,0.86,0.0006299605249474364
1068,0.3533134460449219,0.4537123441696167,0.96,0.86,0.0006299605249474364
1069,0.35331329703330994,0.4536961019039154,0.96,0.86,0.0006299605249474364
1070,0.35331329703330994,0.4536835849285126,0.96,0.86,0.0006299605249474364
1071,0.353313148021698,0.4536696672439575,0.96,0.86,0.0006299605249474364
1072,0.35331302881240845,0.45365580916404724,0.96,0.86,0.0006299605249474364
1073,0.3533129394054413,0.45363983511924744,0.96,0.86,0.0006299605249474364
1074,0.3533128499984741,0.45362919569015503,0.96,0.86,0.0006299605249474364
1075,0.35331276059150696,0.453614741563797,0.96,0.86,0.0006299605249474364
1076,0.3533126413822174,0.45360061526298523,0.96,0.86,0.0006299605249474364
1077,0.35331258177757263,0.45358607172966003,0.96,0.86,0.0006299605249474364
1078,0.35331249237060547,0.4535824656486511,0.96,0.86,0.0006299605249474364
1079,0.3533124029636383,0.45357033610343933,0.96,0.86,0.0006299605249474364
1080,0.35331231355667114,0.45355528593063354,0.96,0.86,0.0006299605249474364
1081,0.35331225395202637,0.4535370171070099,0.96,0.86,0.0006299605249474364
1082,0.35331210494041443,0.4535213112831116,0.96,0.86,0.0006299605249474364
1083,0.35331207513809204,0.4535052180290222,0.96,0.86,0.0006299605249474364
1084,0.3533119559288025,0.45349326729774475,0.96,0.86,0.0006299605249474364
1085,0.3533119261264801,0.45347756147384644,0.96,0.86,0.0006299605249474364
1086,0.35331183671951294,0.45346149802207947,0.96,0.86,0.0006299605249474364
1087,0.353311687707901,0.453445166349411,0.96,0.86,0.0006299605249474364
1088,0.3533116281032562,0.4534303545951843,0.96,0.86,0.0006299605249474364
1089,0.3533115088939667,0.45341405272483826,0.96,0.86,0.0006299605249474364
1090,0.3533114492893219,0.45339831709861755,0.96,0.86,0.0006299605249474364
1091,0.3533113896846771,0.4533812403678894,0.96,0.86,0.0006299605249474364
1092,0.35331130027770996,0.4533644914627075,0.96,0.86,0.0006299605249474364
1093,0.353311151266098,0.4533497095108032,0.96,0.86,0.0006299605249474364
1094,0.35331109166145325,0.45333534479141235,0.96,0.86,0.0006299605249474364
1095,0.35331103205680847,0.4533204734325409,0.96,0.86,0.0006299605249474364
1096,0.35331088304519653,0.45330801606178284,0.96,0.86,0.0006299605249474364
1097,0.35331082344055176,0.4532930254936218,0.96,0.86,0.0006299605249474364
1098,0.3533107042312622,0.45328080654144287,0.96,0.86,0.0006299605249474364
1099,0.35331061482429504,0.453268438577652,0.96,0.86,0.0006299605249474364
1100,0.35331055521965027,0.453253835439682,0.96,0.86,0.0006299605249474364
1101,0.3533104956150055,0.45324158668518066,0.96,0.86,0.0006299605249474364
1102,0.3533104360103607,0.453228235244751,0.96,0.86,0.0006299605249474364
1103,0.35331031680107117,0.4532151520252228,0.96,0.86,0.0006299605249474364
1104,0.353310227394104,0.45320484042167664,0.96,0.86,0.0006299605249474364
1105,0.35331016778945923,0.4531926214694977,0.96,0.86,0.0006299605249474364
1106,0.3533100485801697,0.45317909121513367,0.96,0.86,0.0006299605249474364
1107,0.3533099889755249,0.4531710743904114,0.96,0.86,0.0006299605249474364
1108,0.35330986976623535,0.45315465331077576,0.96,0.86,0.0006299605249474364
1109,0.3533097803592682,0.4531414806842804,0.96,0.86,0.0006299605249474364
1110,0.3533097505569458,0.45312559604644775,0.96,0.86,0.0006299605249474364
1111,0.35330963134765625,0.4531124532222748,0.96,0.86,0.0006299605249474364
1112,0.35330960154533386,0.45309942960739136,0.96,0.86,0.0006299605249474364
1113,0.3533094525337219,0.453088641166687,0.96,0.86,0.0006299605249474364
1114,0.3533094525337219,0.4530777633190155,0.96,0.86,0.0006299605249474364
1115,0.3533092737197876,0.4530636668205261,0.96,0.86,0.0006299605249474364
1116,0.3533092141151428,0.45305106043815613,0.96,0.86,0.0006299605249474364
1117,0.35330909490585327,0.4530402421951294,0.96,0.86,0.0006299605249474364
1118,0.3533090353012085,0.4530274569988251,0.96,0.86,0.0006299605249474364
1119,0.3533090353012085,0.45301127433776855,0.96,0.86,0.0006299605249474364
1120,0.35330885648727417,0.4529987573623657,0.96,0.86,0.0006299605249474364
1121,0.3533088266849518,0.4529878497123718,0.96,0.86,0.0006299605249474364
1122,0.35330870747566223,0.45297497510910034,0.96,0.86,0.0006299605249474364
1123,0.35330864787101746,0.4529629051685333,0.96,0.86,0.0006299605249474364
1124,0.3533085584640503,0.45295241475105286,0.96,0.86,0.0006299605249474364
1125,0.35330843925476074,0.4529381990432739,0.96,0.86,0.0006299605249474364
1126,0.35330840945243835,0.4529273211956024,0.96,0.86,0.0006299605249474364
1127,0.3533082902431488,0.45291614532470703,0.96,0.86,0.0006299605249474364
1128,0.3533082604408264,0.45290887355804443,0.96,0.86,0.0006299605249474364
1129,0.35330817103385925,0.45289620757102966,0.96,0.86,0.0006299605249474364
1130,0.3533081114292145,0.45288577675819397,0.96,0.86,0.0006299605249474364
1131,0.35330796241760254,0.452874094247818,0.96,0.86,0.0006299605249474364
1132,0.3533078730106354,0.4528629183769226,0.96,0.86,0.0006299605249474364
1133,0.353307843208313,0.45285260677337646,0.96,0.86,0.0006299605249474364
1134,0.35330772399902344,0.45284077525138855,0.96,0.86,0.0006299605249474364
1135,0.35330772399902344,0.4528311491012573,0.96,0.86,0.0006299605249474364
1136,0.3533076345920563,0.452818363904953,0.96,0.86,0.0006299605249474364
1137,0.3533075749874115,0.452804833650589,0.96,0.86,0.0006299605249474364
1138,0.35330745577812195,0.45279213786125183,0.96,0.86,0.0006299605249474364
1139,0.3533073365688324,0.4527820348739624,0.96,0.86,0.0006299605249474364
1140,0.35330730676651,0.45277005434036255,0.96,0.86,0.0006299605249474364
1141,0.35330718755722046,0.4527586102485657,0.96,0.86,0.0006299605249474364
1142,0.35330715775489807,0.4527462124824524,0.96,0.86,0.0006299605249474364
1143,0.3533070385456085,0.45273327827453613,0.96,0.86,0.0004999999999999997
1144,0.35330691933631897,0.45272427797317505,0.96,0.86,0.0004999999999999997
1145,0.35330694913864136,0.452714204788208,0.96,0.86,0.0004999999999999997
1146,0.3533068895339966,0.4527048170566559,0.96,0.86,0.0004999999999999997
1147,0.35330677032470703,0.45269325375556946,0.96,0.86,0.0004999999999999997
1148,0.35330674052238464,0.4526841640472412,0.96,0.86,0.0004999999999999997
1149,0.35330668091773987,0.45267364382743835,0.96,0.86,0.0004999999999999997
1150,0.3533066511154175,0.4526638090610504,0.96,0.86,0.0004999999999999997
1151,0.3533065915107727,0.452655553817749,0.96,0.86,0.0004999999999999997
1152,0.35330650210380554,0.45264434814453125,0.96,0.86,0.0004999999999999997
1153,0.353306382894516,0.45263606309890747,0.96,0.86,0.0004999999999999997
1154,0.3533063530921936,0.4526270031929016,0.96,0.86,0.0004999999999999997
1155,0.3533063530921936,0.4526189863681793,0.96,0.86,0.0004999999999999997
1156,0.35330626368522644,0.4526081383228302,0.96,0.86,0.0004999999999999997
1157,0.35330620408058167,0.45259982347488403,0.96,0.86,0.0004999999999999997
1158,0.3533061146736145,0.4525921940803528,0.96,0.86,0.0004999999999999997
1159,0.3533061146736145,0.45258429646492004,0.96,0.86,0.0004999999999999997
1160,0.35330599546432495,0.45257556438446045,0.96,0.86,0.0004999999999999997
1161,0.35330596566200256,0.45256808400154114,0.96,0.86,0.0004999999999999997
1162,0.35330596566200256,0.4525587856769562,0.96,0.86,0.0004999999999999997
1163,0.3533058166503906,0.45254990458488464,0.96,0.86,0.0004999999999999997
1164,0.35330578684806824,0.4525417685508728,0.96,0.86,0.0004999999999999997
1165,0.35330578684806824,0.45253291726112366,0.96,0.86,0.0004999999999999997
1166,0.3533056676387787,0.45252326130867004,0.96,0.86,0.0004999999999999997
1167,0.3533056378364563,0.45251545310020447,0.96,0.86,0.0004999999999999997
1168,0.3533056378364563,0.4525063633918762,0.96,0.86,0.0004999999999999997
1169,0.353305459022522,0.45249640941619873,0.96,0.86,0.0004999999999999997
1170,0.353305459022522,0.4524889290332794,0.96,0.86,0.0004999999999999997
1171,0.3533053994178772,0.45248034596443176,0.96,0.86,0.0004999999999999997
1172,0.35330531001091003,0.45247867703437805,0.96,0.86,0.0004999999999999997
1173,0.35330525040626526,0.4524707496166229,0.96,0.86,0.0004999999999999997
1174,0.35330522060394287,0.45246246457099915,0.96,0.86,0.0004999999999999997
1175,0.3533051609992981,0.4524540305137634,0.96,0.86,0.0004999999999999997
1176,0.3533051013946533,0.4524443447589874,0.96,0.86,0.0004999999999999997
1177,0.35330504179000854,0.4524357318878174,0.96,0.86,0.0004999999999999997
1178,0.35330498218536377,0.45242637395858765,0.96,0.86,0.0004999999999999997
1179,0.3533049523830414,0.45241692662239075,0.96,0.86,0.0004999999999999997
1180,0.3533048629760742,0.4524068534374237,0.96,0.86,0.0004999999999999997
1181,0.35330477356910706,0.4523947238922119,0.96,0.86,0.0004999999999999997
1182,0.35330474376678467,0.45238566398620605,0.96,0.86,0.0004999999999999997
1183,0.3533046841621399,0.45237770676612854,0.96,0.86,0.0004999999999999997
1184,0.3533046245574951,0.45236411690711975,0.96,0.86,0.0004999999999999997
1185,0.35330459475517273,0.4523617923259735,0.96,0.86,0.0004999999999999997
1186,0.3533044755458832,0.4523501992225647,0.96,0.86,0.0004999999999999997
1187,0.3533044755458832,0.45234254002571106,0.96,0.86,0.0004999999999999997
1188,0.35330435633659363,0.4523337483406067,0.96,0.86,0.0004999999999999997
1189,0.35330435633659363,0.4523261785507202,0.96,0.86,0.0004999999999999997
1190,0.35330432653427124,0.4523175358772278,0.96,0.86,0.0004999999999999997
1191,0.3533042073249817,0.4523105323314667,0.96,0.86,0.0004999999999999997
1192,0.3533041775226593,0.45230063796043396,0.96,0.86,0.0004999999999999997
1193,0.3533041775226593,0.4522913992404938,0.96,0.86,0.0004999999999999997
1194,0.35330405831336975,0.4522823691368103,0.96,0.86,0.0004999999999999997
1195,0.35330402851104736,0.4522779881954193,0.96,0.86,0.0004999999999999997
1196,0.3533039391040802,0.45227131247520447,0.96,0.86,0.0004999999999999997
1197,0.3533038794994354,0.4522629976272583,0.96,0.86,0.0004999999999999997
1198,0.35330381989479065,0.45225346088409424,0.96,0.86,0.0004999999999999997
1199,0.3533037602901459,0.4522470533847809,0.96,0.86,0.0004999999999999997
1200,0.3533037304878235,0.45223885774612427,0.96,0.86,0.0004999999999999997
1201,0.3533036410808563,0.4522329568862915,0.96,0.86,0.0004999999999999997
1202,0.3533036708831787,0.45222747325897217,0.96,0.86,0.0004999999999999997
1203,0.35330361127853394,0.4522207975387573,0.96,0.86,0.0004999999999999997
1204,0.3533035218715668,0.4522153437137604,0.96,0.86,0.0004999999999999997
1205,0.353303462266922,0.4522058963775635,0.96,0.86,0.0004999999999999997
1206,0.353303462266922,0.4521985948085785,0.96,0.86,0.0004999999999999997
1207,0.3533034026622772,0.4521868824958801,0.96,0.86,0.0004999999999999997
1208,0.3533032536506653,0.4521801769733429,0.96,0.86,0.0004999999999999997
1209,0.3533032238483429,0.45217365026474,0.96,0.86,0.0004999999999999997
1210,0.35330313444137573,0.45216575264930725,0.96,0.86,0.0004999999999999997
1211,0.35330313444137573,0.4521590769290924,0.96,0.86,0.0004999999999999997
1212,0.35330307483673096,0.4521522521972656,0.96,0.86,0.0004999999999999997
1213,0.35330307483673096,0.45214352011680603,0.96,0.86,0.0004999999999999997
1214,0.3533029556274414,0.45213383436203003,0.96,0.86,0.0004999999999999997
1215,0.353302925825119,0.4521276354789734,0.96,0.86,0.0004999999999999997
1216,0.35330280661582947,0.4521228075027466,0.96,0.86,0.0004999999999999997
1217,0.3533027768135071,0.4521133303642273,0.96,0.86,0.0004999999999999997
1218,0.3533027768135071,0.4521063268184662,0.96,0.86,0.0004999999999999997
1219,0.3533027172088623,0.45209968090057373,0.96,0.86,0.0004999999999999997
1220,0.3533026874065399,0.4520922005176544,0.96,0.86,0.0004999999999999997
1221,0.35330259799957275,0.45208513736724854,0.96,0.86,0.0004999999999999997
1222,0.353302538394928,0.45207691192626953,0.96,0.86,0.0004999999999999997
1223,0.353302538394928,0.4520716071128845,0.96,0.86,0.0004999999999999997
1224,0.35330238938331604,0.4520631730556488,0.96,0.86,0.0004999999999999997
1225,0.35330235958099365,0.4520586133003235,0.96,0.86,0.0004999999999999997
1226,0.35330238938331604,0.4520476460456848,0.96,0.86,0.0004999999999999997
1227,0.3533022701740265,0.4520409405231476,0.96,0.86,0.0004999999999999997
1228,0.3533022403717041,0.4520396888256073,0.96,0.86,0.0004999999999999997
1229,0.35330215096473694,0.4520319700241089,0.96,0.86,0.0004999999999999997
1230,0.35330212116241455,0.452024906873703,0.96,0.86,0.0004999999999999997
1231,0.3533020317554474,0.45201656222343445,0.96,0.86,0.0004999999999999997
1232,0.353302001953125,0.45201072096824646,0.96,0.86,0.0004999999999999997
1233,0.35330191254615784,0.4520045220851898,0.96,0.86,0.0004999999999999997
1234,0.35330188274383545,0.4519970715045929,0.96,0.86,0.0004999999999999997
1235,0.3533018231391907,0.45198947191238403,0.96,0.86,0.0004999999999999997
1236,0.3533017635345459,0.4519808292388916,0.96,0.86,0.0004999999999999997
1237,0.3533017337322235,0.45197296142578125,0.96,0.86,0.0004999999999999997
1238,0.3533017039299011,0.45196667313575745,0.96,0.86,0.0004999999999999997
1239,0.35330161452293396,0.4519592523574829,0.96,0.86,0.0004999999999999997
1240,0.3533015847206116,0.45195212960243225,0.96,0.86,0.0004999999999999997
1241,0.3533014953136444,0.45195141434669495,0.96,0.86,0.0004999999999999997
1242,0.3533014953136444,0.4519403576850891,0.96,0.86,0.0004999999999999997
1243,0.35330143570899963,0.45193612575531006,0.96,0.86,0.0004999999999999997
1244,0.35330140590667725,0.4519297778606415,0.96,0.86,0.00039685026299204955
1245,0.35330134630203247,0.4519234895706177,0.96,0.86,0.00039685026299204955
1246,0.3533012866973877,0.45191872119903564,0.96,0.86,0.00039685026299204955
1247,0.3533012866973877,0.4519098997116089,0.96,0.86,0.00039685026299204955
1248,0.3533012270927429,0.45190516114234924,0.96,0.86,0.00039685026299204955
1249,0.35330116748809814,0.4519007205963135,0.96,0.86,0.00039685026299204955
1250,0.35330116748809814,0.45189350843429565,0.96,0.86,0.00039685026299204955
1251,0.353301078081131,0.4518888592720032,0.96,0.86,0.00039685026299204955
1252,0.3533010482788086,0.4518831968307495,0.96,0.86,0.00039685026299204955
1253,0.35330095887184143,0.45187652111053467,0.96,0.86,0.00039685026299204955
1254,0.3533010184764862,0.45187148451805115,0.96,0.86,0.00039685026299204955
1255,0.35330092906951904,0.4518650472164154,0.96,0.86,0.00039685026299204955
1256,0.35330092906951904,0.4518612325191498,0.96,0.86,0.00039685026299204955
1257,0.35330086946487427,0.45185691118240356,0.96,0.86,0.00039685026299204955
1258,0.3533007800579071,0.45185035467147827,0.96,0.86,0.00039685026299204955
1259,0.3533007800579071,0.4518444836139679,0.96,0.86,0.00039685026299204955
1260,0.3533007502555847,0.4518388509750366,0.96,0.86,0.00039685026299204955
1261,0.35330066084861755,0.45183318853378296,0.96,0.86,0.00039685026299204955
1262,0.35330063104629517,0.4518274962902069,0.96,0.86,0.00039685026299204955
1263,0.35330066084861755,0.45182251930236816,0.96,0.86,0.00039685026299204955
1264,0.353300541639328,0.451819509267807,0.96,0.86,0.00039685026299204955
1265,0.353300541639328,0.45181429386138916,0.96,0.86,0.00039685026299204955
1266,0.3533004820346832,0.4518073797225952,0.96,0.86,0.00039685026299204955
1267,0.35330045223236084,0.45180198550224304,0.96,0.86,0.00039685026299204955
1268,0.3533004820346832,0.4517974853515625,0.96,0.86,0.00039685026299204955
1269,0.35330039262771606,0.45179283618927,0.96,0.86,0.00039685026299204955
1270,0.3533003628253937,0.4517863392829895,0.96,0.86,0.00039685026299204955
1271,0.3533002734184265,0.451781302690506,0.96,0.86,0.00039685026299204955
1272,0.3533002436161041,0.4517751932144165,0.96,0.86,0.00039685026299204955
1273,0.35330021381378174,0.45176684856414795,0.96,0.86,0.00039685026299204955
1274,0.35330021381378174,0.451761931180954,0.96,0.86,0.00039685026299204955
1275,0.35330021381378174,0.45175665616989136,0.96,0.86,0.00039685026299204955
1276,0.3533000946044922,0.4517516791820526,0.96,0.86,0.00039685026299204955
1277,0.3533000946044922,0.4517451226711273,0.96,0.86,0.00039685026299204955
1278,0.3533000648021698,0.45173928141593933,0.96,0.86,0.00039685026299204955
1279,0.35329997539520264,0.45173507928848267,0.96,0.86,0.00039685026299204955
1280,0.35329994559288025,0.4517320394515991,0.96,0.86,0.00039685026299204955
1281,0.3532998561859131,0.4517270028591156,0.96,0.86,0.00039685026299204955
1282,0.3532998561859131,0.4517205059528351,0.96,0.86,0.00039685026299204955
1283,0.3532998561859131,0.4517116844654083,0.96,0.86,0.00039685026299204955
1284,0.35329973697662354,0.4517102837562561,0.96,0.86,0.00039685026299204955
1285,0.35329970717430115,0.4517063796520233,0.96,0.86,0.00039685026299204955
1286,0.35329970717430115,0.45170173048973083,0.96,0.86,0.00039685026299204955
1287,0.35329964756965637,0.4516953229904175,0.96,0.86,0.00039685026299204955
1288,0.35329964756965637,0.45169132947921753,0.96,0.86,0.00039685026299204955
1289,0.3532995581626892,0.45168641209602356,0.96,0.86,0.00039685026299204955
1290,0.3532995581626892,0.45168110728263855,0.96,0.86,0.00039685026299204955
1291,0.3532995283603668,0.4516751766204834,0.96,0.86,0.00039685026299204955
1292,0.35329943895339966,0.45166805386543274,0.96,0.86,0.00039685026299204955
1293,0.35329943895339966,0.4516620934009552,0.96,0.86,0.00039685026299204955
1294,0.35329940915107727,0.451656311750412,0.96,0.86,0.00039685026299204955
1295,0.3532993793487549,0.45165249705314636,0.96,0.86,0.00039685026299204955
1296,0.3532993197441101,0.45164817571640015,0.96,0.86,0.00039685026299204955
1297,0.3532993197441101,0.45164841413497925,0.96,0.86,0.00039685026299204955
1298,0.35329926013946533,0.45164358615875244,0.96,0.86,0.00039685026299204955
1299,0.3532991409301758,0.4516378343105316,0.96,0.86,0.00039685026299204955
1300,0.3532991409301758,0.4516298770904541,0.96,0.86,0.00039685026299204955
1301,0.3532991409301758,0.45162445306777954,0.96,0.86,0.00039685026299204955
1302,0.3532990515232086,0.451619952917099,0.96,0.86,0.00039685026299204955
1303,0.3532990515232086,0.4516147971153259,0.96,0.86,0.00039685026299204955
1304,0.35329899191856384,0.4516138732433319,0.96,0.86,0.00039685026299204955
1305,0.35329896211624146,0.4516083896160126,0.96,0.86,0.00039685026299204955
1306,0.35329896211624146,0.45160484313964844,0.96,0.86,0.00039685026299204955
1307,0.3532989025115967,0.4515995383262634,0.96,0.86,0.00039685026299204955
1308,0.3532988429069519,0.45159584283828735,0.96,0.86,0.00039685026299204955
1309,0.3532988429069519,0.4515913426876068,0.96,0.86,0.00039685026299204955
1310,0.35329875349998474,0.45158612728118896,0.96,0.86,0.00039685026299204955
1311,0.35329872369766235,0.4515812397003174,0.96,0.86,0.00039685026299204955
1312,0.3532986342906952,0.4515766203403473,0.96,0.86,0.00039685026299204955
1313,0.35329869389533997,0.4515727758407593,0.96,0.86,0.00039685026299204955
1314,0.3532986044883728,0.4515676200389862,0.96,0.86,0.00039685026299204955
1315,0.3532985746860504,0.4515630602836609,0.96,0.86,0.00039685026299204955
1316,0.3532985746860504,0.45155835151672363,0.96,0.86,0.00039685026299204955
1317,0.353298544883728,0.45155078172683716,0.96,0.86,0.00039685026299204955
1318,0.35329848527908325,0.4515248239040375,0.96,0.86,0.00039685026299204955
1319,0.35329845547676086,0.4515213668346405,0.96,0.86,0.00039685026299204955
1320,0.3532984256744385,0.45151981711387634,0.96,0.86,0.00039685026299204955
1321,0.3532983660697937,0.4515169858932495,0.96,0.86,0.00039685026299204955
1322,0.3532983064651489,0.4515034556388855,0.96,0.86,0.00039685026299204955
1323,0.3532983362674713,0.45149901509284973,0.96,0.86,0.00039685026299204955
1324,0.35329827666282654,0.4514944553375244,0.96,0.86,0.00039685026299204955
1325,0.3532981872558594,0.45149126648902893,0.96,0.86,0.00039685026299204955
1326,0.3532981872558594,0.4514869749546051,0.96,0.86,0.00039685026299204955
1327,0.353298157453537,0.4514831602573395,0.96,0.86,0.00039685026299204955
1328,0.3532980978488922,0.4514792561531067,0.96,0.86,0.00039685026299204955
1329,0.3532980680465698,0.4514786899089813,0.96,0.86,0.00039685026299204955
1330,0.35329800844192505,0.45147478580474854,0.96,0.86,0.00039685026299204955
1331,0.35329800844192505,0.45147278904914856,0.96,0.86,0.00039685026299204955
1332,0.3532979488372803,0.45146870613098145,0.96,0.86,0.00039685026299204955
1333,0.3532979190349579,0.451460599899292,0.96,0.86,0.00039685026299204955
1334,0.3532978892326355,0.451455682516098,0.96,0.86,0.00039685026299204955
1335,0.3532978296279907,0.4514516592025757,0.96,0.86,0.00039685026299204955
1336,0.35329777002334595,0.4514467716217041,0.96,0.86,0.00039685026299204955
1337,0.3532978296279907,0.4514425992965698,0.96,0.86,0.00039685026299204955
1338,0.35329774022102356,0.45143648982048035,0.96,0.86,0.00039685026299204955
1339,0.3532976508140564,0.4514327943325043,0.96,0.86,0.00039685026299204955
1340,0.353297621011734,0.4514288604259491,0.96,0.86,0.00039685026299204955
1341,0.353297621011734,0.4514233469963074,0.96,0.86,0.00039685026299204955
1342,0.353297621011734,0.45141974091529846,0.96,0.86,0.00039685026299204955
1343,0.35329753160476685,0.4514158368110657,0.96,0.86,0.00039685026299204955
1344,0.35329753160476685,0.4514131247997284,0.96,0.86,0.00039685026299204955
1345,0.35329747200012207,0.451407790184021,0.96,0.86,0.00031498026247371797
1346,0.35329747200012207,0.45141011476516724,0.96,0.86,0.00031498026247371797
1347,0.3532973825931549,0.45140746235847473,0.96,0.86,0.00031498026247371797
1348,0.3532973825931549,0.451404333114624,0.96,0.86,0.00031498026247371797
1349,0.35329732298851013,0.4514026939868927,0.96,0.86,0.00031498026247371797
1350,0.35329732298851013,0.4514000415802002,0.96,0.86,0.00031498026247371797
1351,0.35329726338386536,0.4513948857784271,0.96,0.86,0.00031498026247371797
1352,0.35329726338386536,0.45139461755752563,0.96,0.86,0.00031498026247371797
1353,0.35329726338386536,0.45139357447624207,0.96,0.86,0.00031498026247371797
1354,0.35329723358154297,0.4513895809650421,0.96,0.86,0.00031498026247371797
1355,0.3532971143722534,0.45138412714004517,0.96,0.86,0.00031498026247371797
1356,0.35329708456993103,0.45138221979141235,0.96,0.86,0.00031498026247371797
1357,0.3532971441745758,0.45138004422187805,0.96,0.86,0.00031498026247371797
1358,0.35329708456993103,0.4513722360134125,0.96,0.86,0.00031498026247371797
1359,0.35329699516296387,0.4513683319091797,0.96,0.86,0.00031498026247371797
1360,0.35329705476760864,0.45136597752571106,0.96,0.86,0.00031498026247371797
1361,0.35329705476760864,0.45136258006095886,0.96,0.86,0.00031498026247371797
1362,0.3532969653606415,0.4513597786426544,0.96,0.86,0.00031498026247371797
1363,0.3532969653606415,0.45135700702667236,0.96,0.86,0.00031498026247371797
1364,0.3532969355583191,0.4513531029224396,0.96,0.86,0.00031498026247371797
1365,0.3532969355583191,0.451349675655365,0.96,0.86,0.00031498026247371797
1366,0.3532969355583191,0.4513443112373352,0.96,0.86,0.00031498026247371797
1367,0.35329681634902954,0.4513406753540039,0.96,0.86,0.00031498026247371797
1368,0.35329684615135193,0.45133763551712036,0.96,0.86,0.00031498026247371797
1369,0.35329678654670715,0.4513341188430786,0.96,0.86,0.00031498026247371797
1370,0.35329678654670715,0.4513309597969055,0.96,0.86,0.00031498026247371797
1371,0.35329669713974,0.451326459646225,0.96,0.86,0.00031498026247371797
1372,0.35329669713974,0.4513234794139862,0.96,0.86,0.00031498026247371797
1373,0.35329669713974,0.4513196647167206,0.96,0.86,0.00031498026247371797
1374,0.3532966673374176,0.4513164162635803,0.96,0.86,0.00031498026247371797
1375,0.3532966673374176,0.4513128697872162,0.96,0.86,0.00031498026247371797
1376,0.35329657793045044,0.4513087868690491,0.96,0.86,0.00031498026247371797
1377,0.35329654812812805,0.45130521059036255,0.96,0.86,0.00031498026247371797
1378,0.35329651832580566,0.4513009190559387,0.96,0.86,0.00031498026247371797
1379,0.35329654812812805,0.4513038694858551,0.96,0.86,0.00031498026247371797
1380,0.3532964587211609,0.45130079984664917,0.96,0.86,0.00031498026247371797
1381,0.3532963991165161,0.45129698514938354,0.96,0.86,0.00031498026247371797
1382,0.3532964289188385,0.45129477977752686,0.96,0.86,0.00031498026247371797
1383,0.3532963693141937,0.4512886106967926,0.96,0.86,0.00031498026247371797
1384,0.3532963693141937,0.4512854814529419,0.96,0.86,0.00031498026247371797
1385,0.3532963991165161,0.45127978920936584,0.96,0.86,0.00031498026247371797
1386,0.35329627990722656,0.4512757956981659,0.96,0.86,0.00031498026247371797
1387,0.35329630970954895,0.451272189617157,0.96,0.86,0.00031498026247371797
1388,0.3532962501049042,0.4512692391872406,0.96,0.86,0.00031498026247371797
1389,0.3532961905002594,0.45126619935035706,0.96,0.86,0.00031498026247371797
1390,0.3532962501049042,0.4512619376182556,0.96,0.86,0.00031498026247371797
1391,0.3532961905002594,0.4512610137462616,0.96,0.86,0.00031498026247371797
1392,0.3532961308956146,0.4512585401535034,0.96,0.86,0.00031498026247371797
1393,0.353296160697937,0.4512547254562378,0.96,0.86,0.00031498026247371797
1394,0.3532961308956146,0.451252281665802,0.96,0.86,0.00031498026247371797
1395,0.35329604148864746,0.4512485861778259,0.96,0.86,0.00031498026247371797
1396,0.3532960116863251,0.45124417543411255,0.96,0.86,0.00031498026247371797
1397,0.3532959818840027,0.4512426257133484,0.96,0.86,0.00031498026247371797
1398,0.3532959818840027,0.45123928785324097,0.96,0.86,0.00031498026247371797
1399,0.3532959222793579,0.4512360692024231,0.96,0.86,0.00031498026247371797
1400,0.3532959818840027,0.45123299956321716,0.96,0.86,0.00031498026247371797
1401,0.3532958924770355,0.45122402906417847,0.96,0.86,0.00031498026247371797
1402,0.35329586267471313,0.45122215151786804,0.96,0.86,0.00031498026247371797
1403,0.35329583287239075,0.4512210190296173,0.96,0.86,0.00031498026247371797
1404,0.35329577326774597,0.4512174725532532,0.96,0.86,0.00031498026247371797
1405,0.3532957434654236,0.4512164294719696,0.96,0.86,0.00031498026247371797
1406,0.3532957434654236,0.45121368765830994,0.96,0.86,0.00031498026247371797
1407,0.3532957136631012,0.4512103199958801,0.96,0.86,0.00031498026247371797
1408,0.3532956838607788,0.4512083828449249,0.96,0.86,0.00031498026247371797
1409,0.3532956838607788,0.4512072503566742,0.96,0.86,0.00031498026247371797
1410,0.3532956838607788,0.4512017071247101,0.96,0.86,0.00031498026247371797
1411,0.35329562425613403,0.45119819045066833,0.96,0.86,0.00031498026247371797
1412,0.35329559445381165,0.4511955976486206,0.96,0.86,0.00031498026247371797
1413,0.35329556465148926,0.4511914551258087,0.96,0.86,0.00031498026247371797
1414,0.35329559445381165,0.451192170381546,0.96,0.86,0.00031498026247371797
1415,0.3532955050468445,0.45118892192840576,0.96,0.86,0.00031498026247371797
1416,0.3532955050468445,0.45118552446365356,0.96,0.86,0.00031498026247371797
1417,0.35329556465148926,0.45118290185928345,0.96,0.86,0.00031498026247371797
1418,0.3532954454421997,0.4511805772781372,0.96,0.86,0.00031498026247371797
1419,0.3532954454421997,0.4511775076389313,0.96,0.86,0.00031498026247371797
1420,0.35329535603523254,0.45117267966270447,0.96,0.86,0.00031498026247371797
1421,0.35329532623291016,0.45116931200027466,0.96,0.86,0.00031498026247371797
1422,0.35329529643058777,0.45116639137268066,0.96,0.86,0.00031498026247371797
1423,0.35329529643058777,0.45116475224494934,0.96,0.86,0.00031498026247371797
1424,0.35329529643058777,0.45116230845451355,0.96,0.86,0.00031498026247371797
1425,0.353295236825943,0.45115888118743896,0.96,0.86,0.00031498026247371797
1426,0.353295236825943,0.4511560797691345,0.96,0.86,0.00031498026247371797
1427,0.3532952070236206,0.45115339756011963,0.96,0.86,0.00031498026247371797
1428,0.3532951772212982,0.4511510133743286,0.96,0.86,0.00031498026247371797
1429,0.3532951772212982,0.45114803314208984,0.96,0.86,0.00031498026247371797
1430,0.35329505801200867,0.4511457681655884,0.96,0.86,0.00031498026247371797
1431,0.35329505801200867,0.4511426091194153,0.96,0.86,0.00031498026247371797
1432,0.35329505801200867,0.45114031434059143,0.96,0.86,0.00031498026247371797
1433,0.35329505801200867,0.4511362314224243,0.96,0.86,0.00031498026247371797
1434,0.3532949686050415,0.4511339068412781,0.96,0.86,0.00031498026247371797
1435,0.3532949686050415,0.4511300325393677,0.96,0.86,0.00031498026247371797
1436,0.3532949388027191,0.4511256814002991,0.96,0.86,0.00031498026247371797
1437,0.3532949388027191,0.45112311840057373,0.96,0.86,0.00031498026247371797
1438,0.35329487919807434,0.4511208236217499,0.96,0.86,0.00031498026247371797
1439,0.35329487919807434,0.4511180520057678,0.96,0.86,0.00031498026247371797
1440,0.35329487919807434,0.4511112570762634,0.96,0.86,0.00031498026247371797
1441,0.35329481959342957,0.45110902190208435,0.96,0.86,0.00031498026247371797
1442,0.3532947599887848,0.4511052370071411,0.96,0.86,0.00031498026247371797
1443,0.3532947599887848,0.45110198855400085,0.96,0.86,0.00031498026247371797
1444,0.3532947301864624,0.4510985314846039,0.96,0.86,0.00031498026247371797
1445,0.3532946705818176,0.4510965645313263,0.96,0.86,0.00031498026247371797
1446,0.3532946705818176,0.4510934352874756,0.96,0.86,0.00031498026247371797
1447,0.3532946705818176,0.4510906934738159,0.96,0.86,0.00031498026247371797
1448,0.3532946705818176,0.45108649134635925,0.96,0.86,0.00031498026247371797
1449,0.35329461097717285,0.451082319021225,0.96,0.86,0.00031498026247371797
1450,0.3532945513725281,0.4510796070098877,0.96,0.86,0.00031498026247371797
1451,0.3532945215702057,0.45107606053352356,0.96,0.86,0.00031498026247371797
1452,0.3532945215702057,0.4510745704174042,0.96,0.86,0.00031498026247371797
1453,0.3532945215702057,0.451072096824646,0.96,0.86,0.00031498026247371797
1454,0.3532944917678833,0.45106831192970276,0.96,0.86,0.00031498026247371797
1455,0.3532944619655609,0.45106637477874756,0.96,0.86,0.00031498026247371797
1456,0.3532944619655609,0.45106592774391174,0.96,0.86,0.00031498026247371797
1457,0.35329440236091614,0.45105990767478943,0.96,0.86,0.00031498026247371797
1458,0.35329434275627136,0.4510578513145447,0.96,0.86,0.00031498026247371797
1459,0.35329437255859375,0.45105549693107605,0.96,0.86,0.00031498026247371797
1460,0.35329434275627136,0.4510522186756134,0.96,0.86,0.00031498026247371797
1461,0.3532942831516266,0.4510481357574463,0.96,0.86,0.00031498026247371797
1462,0.3532942533493042,0.45104649662971497,0.96,0.86,0.00031498026247371797
1463,0.3532942533493042,0.4510442018508911,0.96,0.86,0.00031498026247371797
1464,0.3532941937446594,0.4510422646999359,0.96,0.86,0.00031498026247371797
1465,0.3532941937446594,0.45103833079338074,0.96,0.86,0.00031498026247371797
1466,0.35329413414001465,0.45103615522384644,0.96,0.86,0.00031498026247371797
1467,0.35329410433769226,0.4510333240032196,0.96,0.86,0.00031498026247371797
1468,0.35329410433769226,0.4510338306427002,0.96,0.86,0.00031498026247371797
1469,0.35329410433769226,0.4510307013988495,0.96,0.86,0.00031498026247371797
1470,0.3532940149307251,0.4510277211666107,0.96,0.86,0.00031498026247371797
1471,0.3532939553260803,0.45102500915527344,0.96,0.86,0.00031498026247371797
1472,0.3532939851284027,0.45102259516716003,0.96,0.86,0.00031498026247371797
1473,0.3532939553260803,0.45102134346961975,0.96,0.86,0.00031498026247371797
1474,0.3532939553260803,0.4510192573070526,0.96,0.86,0.00031498026247371797
1475,0.3532939553260803,0.4510161280632019,0.96,0.86,0.00031498026247371797
1476,0.35329392552375793,0.45101726055145264,0.96,0.86,0.00031498026247371797
1477,0.35329386591911316,0.4510143995285034,0.96,0.86,0.00031498026247371797
1478,0.35329383611679077,0.45101210474967957,0.96,0.86,0.00031498026247371797
1479,0.3532938063144684,0.4510093629360199,0.96,0.86,0.00031498026247371797
1480,0.3532938063144684,0.45100516080856323,0.96,0.86,0.00031498026247371797
1481,0.3532938063144684,0.4510018229484558,0.96,0.86,0.00031498026247371797
1482,0.35329368710517883,0.4509991407394409,0.96,0.86,0.00031498026247371797
1483,0.35329368710517883,0.45099690556526184,0.96,0.86,0.00031498026247371797
1484,0.35329368710517883,0.45099544525146484,0.96,0.86,0.00031498026247371797
1485,0.35329365730285645,0.4509934186935425,0.96,0.86,0.00031498026247371797
1486,0.35329368710517883,0.4509899914264679,0.96,0.86,0.00031498026247371797
1487,0.3532935678958893,0.4509873688220978,0.96,0.86,0.00031498026247371797
1488,0.35329365730285645,0.4509848654270172,0.96,0.86,0.00031498026247371797
1489,0.3532935678958893,0.45098167657852173,0.96,0.86,0.00031498026247371797
1490,0.3532935380935669,0.45097947120666504,0.96,0.86,0.00031498026247371797
1491,0.3532935380935669,0.45097634196281433,0.96,0.86,0.00031498026247371797
1492,0.35329344868659973,0.45097142457962036,0.96,0.86,0.00031498026247371797
1493,0.35329341888427734,0.4509686231613159,0.96,0.86,0.00031498026247371797
1494,0.35329341888427734,0.45096680521965027,0.96,0.86,0.00031498026247371797
1495,0.35329338908195496,0.4509635269641876,0.96,0.86,0.00031498026247371797
1496,0.35329338908195496,0.45096156001091003,0.96,0.86,0.00031498026247371797
1497,0.35329338908195496,0.45095452666282654,0.96,0.86,0.00031498026247371797
1498,0.35329338908195496,0.45094677805900574,0.96,0.86,0.00031498026247371797
1499,0.3532932698726654,0.4509444832801819,0.96,0.86,0.00031498026247371797
1500,0.3532932996749878,0.45094186067581177,0.96,0.86,0.00031498026247371797
1501,0.353293240070343,0.45093995332717896,0.96,0.86,0.00031498026247371797
1502,0.353293240070343,0.4509376585483551,0.96,0.86,0.00031498026247371797
1503,0.35329318046569824,0.45093604922294617,0.96,0.86,0.00031498026247371797
1504,0.35329318046569824,0.4509355127811432,0.96,0.86,0.00031498026247371797
1505,0.35329315066337585,0.45093345642089844,0.96,0.86,0.0002499999999999997
1506,0.35329315066337585,0.45093199610710144,0.96,0.86,0.0002499999999999997
1507,0.35329312086105347,0.4509306252002716,0.96,0.86,0.0002499999999999997
1508,0.3532930314540863,0.4509287178516388,0.96,0.86,0.0002499999999999997
1509,0.3532930612564087,0.4509274363517761,0.96,0.86,0.0002499999999999997
1510,0.3532930016517639,0.4509262442588806,0.96,0.86,0.0002499999999999997
1511,0.3532930016517639,0.4509199857711792,0.96,0.86,0.0002499999999999997
1512,0.3532930016517639,0.4509139657020569,0.96,0.86,0.0002499999999999997
1513,0.35329297184944153,0.4509133994579315,0.96,0.86,0.0002499999999999997
1514,0.35329297184944153,0.45091190934181213,0.96,0.86,0.0002499999999999997
1515,0.35329291224479675,0.45090997219085693,0.96,0.86,0.0002499999999999997
1516,0.35329291224479675,0.4509084224700928,0.96,0.86,0.0002499999999999997
1517,0.35329291224479675,0.45090779662132263,0.96,0.86,0.0002499999999999997
1518,0.353292852640152,0.45090392231941223,0.96,0.86,0.0002499999999999997
1519,0.353292852640152,0.45090267062187195,0.96,0.86,0.0002499999999999997
1520,0.35329288244247437,0.4509015679359436,0.96,0.86,0.0002499999999999997
1521,0.3532928228378296,0.45090094208717346,0.96,0.86,0.0002499999999999997
1522,0.3532928228378296,0.450901597738266,0.96,0.86,0.0002499999999999997
1523,0.3532927632331848,0.45089980959892273,0.96,0.86,0.0002499999999999997
1524,0.3532928228378296,0.4508989751338959,0.96,0.86,0.0002499999999999997
1525,0.3532927334308624,0.45089781284332275,0.96,0.86,0.0002499999999999997
1526,0.3532927334308624,0.4508959949016571,0.96,0.86,0.0002499999999999997
1527,0.35329270362854004,0.45089495182037354,0.96,0.86,0.0002499999999999997
1528,0.35329264402389526,0.45089367032051086,0.96,0.86,0.0002499999999999997
1529,0.35329264402389526,0.45089367032051086,0.96,0.86,0.0002499999999999997
1530,0.35329264402389526,0.4508940875530243,0.96,0.86,0.0002499999999999997
1531,0.35329264402389526,0.45089253783226013,0.96,0.86,0.0002499999999999997
1532,0.3532925844192505,0.4508891999721527,0.96,0.86,0.0002499999999999997
1533,0.3532925844192505,0.4508882462978363,0.96,0.86,0.0002499999999999997
1534,0.3532925844192505,0.45088526606559753,0.96,0.86,0.0002499999999999997
1535,0.3532925844192505,0.4508839547634125,0.96,0.86,0.0002499999999999997
1536,0.3532925844192505,0.45088255405426025,0.96,0.86,0.0002499999999999997
1537,0.3532924950122833,0.450880765914917,0.96,0.86,0.0002499999999999997
1538,0.35329243540763855,0.45087701082229614,0.96,0.86,0.0002499999999999997
1539,0.3532924950122833,0.45087477564811707,0.96,0.86,0.0002499999999999997
1540,0.35329243540763855,0.45087286829948425,0.96,0.86,0.0002499999999999997
1541,0.35329246520996094,0.4508710205554962,0.96,0.86,0.0002499999999999997
1542,0.35329246520996094,0.45086774230003357,0.96,0.86,0.0002499999999999997
1543,0.3532923758029938,0.4508642852306366,0.96,0.86,0.0002499999999999997
1544,0.3532923758029938,0.45086097717285156,0.96,0.86,0.0002499999999999997
1545,0.3532923758029938,0.4508591592311859,0.96,0.86,0.0002499999999999997
1546,0.353292316198349,0.45085760951042175,0.96,0.86,0.0002499999999999997
1547,0.353292316198349,0.45085448026657104,0.96,0.86,0.0002499999999999997
1548,0.3532922863960266,0.4508518874645233,0.96,0.86,0.0002499999999999997
1549,0.35329222679138184,0.45085012912750244,0.96,0.86,0.0002499999999999997
1550,0.35329222679138184,0.4508500397205353,0.96,0.86,0.0002499999999999997
1551,0.35329219698905945,0.45084813237190247,0.96,0.86,0.0002499999999999997
1552,0.3532922863960266,0.4508430063724518,0.96,0.86,0.0002499999999999997
1553,0.35329222679138184,0.45083972811698914,0.96,0.86,0.0002499999999999997
1554,0.35329216718673706,0.4508371651172638,0.96,0.86,0.0002499999999999997
1555,0.35329216718673706,0.45083382725715637,0.96,0.86,0.0002499999999999997
1556,0.3532921075820923,0.4508326053619385,0.96,0.86,0.0002499999999999997
1557,0.3532921075820923,0.4508301019668579,0.96,0.86,0.0002499999999999997
1558,0.35329216718673706,0.4508265554904938,0.96,0.86,0.0002499999999999997
1559,0.3532920777797699,0.45082390308380127,0.96,0.86,0.0002499999999999997
1560,0.3532920777797699,0.4508206844329834,0.96,0.86,0.0002499999999999997
1561,0.3532920181751251,0.45081937313079834,0.96,0.86,0.0002499999999999997
1562,0.3532920479774475,0.45081618428230286,0.96,0.86,0.0002499999999999997
1563,0.3532920181751251,0.45081305503845215,0.96,0.86,0.0002499999999999997
1564,0.3532920181751251,0.45080798864364624,0.96,0.86,0.0002499999999999997
1565,0.35329195857048035,0.45080479979515076,0.96,0.86,0.0002499999999999997
1566,0.35329195857048035,0.4508025348186493,0.96,0.86,0.0002499999999999997
1567,0.35329189896583557,0.45079976320266724,0.96,0.86,0.0002499999999999997
1568,0.35329192876815796,0.45079779624938965,0.96,0.86,0.0002499999999999997
1569,0.35329189896583557,0.45079854130744934,0.96,0.86,0.0002499999999999997
1570,0.3532918691635132,0.4507957100868225,0.96,0.86,0.0002499999999999997
1571,0.3532918691635132,0.45079150795936584,0.96,0.86,0.0002499999999999997
1572,0.353291779756546,0.4507928788661957,0.96,0.86,0.0002499999999999997
1573,0.353291779756546,0.450790673494339,0.96,0.86,0.0002499999999999997
1574,0.35329174995422363,0.45078861713409424,0.96,0.86,0.0002499999999999997
1575,0.35329174995422363,0.45078322291374207,0.96,0.86,0.0002499999999999997
1576,0.353291779756546,0.4507838785648346,0.96,0.86,0.0002499999999999997
1577,0.35329174995422363,0.45078006386756897,0.96,0.86,0.0002499999999999997
1578,0.35329169034957886,0.45077773928642273,0.96,0.86,0.0002499999999999997
1579,0.35329166054725647,0.45077580213546753,0.96,0.86,0.0002499999999999997
1580,0.35329169034957886,0.4507727026939392,0.96,0.86,0.0002499999999999997
1581,0.3532916307449341,0.4507702589035034,0.96,0.86,0.0002499999999999997
1582,0.35329166054725647,0.450768381357193,0.96,0.86,0.0002499999999999997
1583,0.3532915413379669,0.4507669508457184,0.96,0.86,0.0002499999999999997
1584,0.3532915413379669,0.45076489448547363,0.96,0.86,0.0002499999999999997
1585,0.3532915413379669,0.4507617652416229,0.96,0.86,0.0002499999999999997
1586,0.3532915413379669,0.4507592022418976,0.96,0.86,0.0002499999999999997
1587,0.3532915413379669,0.45075884461402893,0.96,0.86,0.0002499999999999997
1588,0.3532915413379669,0.45075756311416626,0.96,0.86,0.0002499999999999997
1589,0.35329151153564453,0.4507555365562439,0.96,0.86,0.0002499999999999997
1590,0.35329142212867737,0.45075365900993347,0.96,0.86,0.0002499999999999997
1591,0.35329142212867737,0.45075058937072754,0.96,0.86,0.0002499999999999997
1592,0.353291392326355,0.45074835419654846,0.96,0.86,0.0002499999999999997
1593,0.35329142212867737,0.45074883103370667,0.96,0.86,0.0002499999999999997
1594,0.3532913327217102,0.45075318217277527,0.96,0.86,0.0002499999999999997
1595,0.353291392326355,0.4507512152194977,0.96,0.86,0.0002499999999999997
1596,0.3532913625240326,0.4507501721382141,0.96,0.86,0.0002499999999999997
1597,0.3532913327217102,0.45074671506881714,0.96,0.86,0.0002499999999999997
1598,0.3532913327217102,0.45074597001075745,0.96,0.86,0.0002499999999999997
1599,0.35329127311706543,0.4507431089878082,0.96,0.86,0.0002499999999999997
1600,0.35329127311706543,0.45074939727783203,0.96,0.86,0.0002499999999999997
1601,0.35329127311706543,0.45074427127838135,0.96,0.86,0.0002499999999999997
1602,0.3532913327217102,0.4507419168949127,0.96,0.86,0.0002499999999999997
1603,0.35329121351242065,0.45073944330215454,0.96,0.86,0.0002499999999999997
1604,0.35329121351242065,0.4507365822792053,0.96,0.86,0.0002499999999999997
1605,0.35329121351242065,0.4507334530353546,0.96,0.86,0.0002499999999999997
1606,0.3532911241054535,0.4507318139076233,0.96,0.86,0.00019842513149602464
1607,0.3532911539077759,0.4507299065589905,0.96,0.86,0.00019842513149602464
1608,0.3532911241054535,0.45072850584983826,0.96,0.86,0.00019842513149602464
1609,0.3532910943031311,0.45072680711746216,0.96,0.86,0.00019842513149602464
1610,0.3532911241054535,0.45072510838508606,0.96,0.86,0.00019842513149602464
1611,0.3532911241054535,0.4507230818271637,0.96,0.86,0.00019842513149602464
1612,0.3532910645008087,0.4507213830947876,0.96,0.86,0.00019842513149602464
1613,0.3532910943031311,0.45071953535079956,0.96,0.86,0.00019842513149602464
1614,0.3532910645008087,0.45071810483932495,0.96,0.86,0.00019842513149602464
1615,0.3532910645008087,0.45071396231651306,0.96,0.86,0.00019842513149602464
1616,0.35329100489616394,0.4507122337818146,0.96,0.86,0.00019842513149602464
1617,0.35329100489616394,0.4507097899913788,0.96,0.86,0.00019842513149602464
1618,0.35329094529151917,0.4507082998752594,0.96,0.86,0.00019842513149602464
1619,0.35329100489616394,0.4507163166999817,0.96,0.86,0.00019842513149602464
1620,0.35329097509384155,0.45071467757225037,0.96,0.86,0.00019842513149602464
1621,0.35329094529151917,0.45071208477020264,0.96,0.86,0.00019842513149602464
1622,0.35329094529151917,0.4507099986076355,0.96,0.86,0.00019842513149602464
1623,0.3532909154891968,0.45070672035217285,0.96,0.86,0.00019842513149602464
1624,0.353290855884552,0.4507056772708893,0.96,0.86,0.00019842513149602464
1625,0.3532909154891968,0.45070403814315796,0.96,0.86,0.00019842513149602464
1626,0.353290855884552,0.45070257782936096,0.96,0.86,0.00019842513149602464
1627,0.3532908260822296,0.4507007896900177,0.96,0.86,0.00019842513149602464
1628,0.3532908260822296,0.45069894194602966,0.96,0.86,0.00019842513149602464
1629,0.3532907962799072,0.45069944858551025,0.96,0.86,0.00019842513149602464
1630,0.3532908260822296,0.45069801807403564,0.96,0.86,0.00019842513149602464
1631,0.3532907962799072,0.45069658756256104,0.96,0.86,0.00019842513149602464
1632,0.3532908260822296,0.4506947994232178,0.96,0.86,0.00019842513149602464
1633,0.35329073667526245,0.4506922662258148,0.96,0.86,0.00019842513149602464
1634,0.3532907962799072,0.4506913423538208,0.96,0.86,0.00019842513149602464
1635,0.3532907962799072,0.45069000124931335,0.96,0.86,0.00019842513149602464
1636,0.35329073667526245,0.45068854093551636,0.96,0.86,0.00019842513149602464
1637,0.35329070687294006,0.4506877660751343,0.96,0.86,0.00019842513149602464
1638,0.3532906770706177,0.4506867527961731,0.96,0.86,0.00019842513149602464
1639,0.35329070687294006,0.45068591833114624,0.96,0.86,0.00019842513149602464
1640,0.3532906472682953,0.45068514347076416,0.96,0.86,0.00019842513149602464
1641,0.3532906770706177,0.45068660378456116,0.96,0.86,0.00019842513149602464
1642,0.3532905876636505,0.45068466663360596,0.96,0.86,0.00019842513149602464
1643,0.3532906472682953,0.4506835639476776,0.96,0.86,0.00019842513149602464
1644,0.3532905876636505,0.450682133436203,0.96,0.86,0.00019842513149602464
1645,0.3532905578613281,0.4506816864013672,0.96,0.86,0.00019842513149602464
1646,0.3532905578613281,0.4506807327270508,0.96,0.86,0.00019842513149602464
1647,0.3532905876636505,0.4506798982620239,0.96,0.86,0.00019842513149602464
1648,0.35329052805900574,0.4506795406341553,0.96,0.86,0.00019842513149602464
1649,0.3532905578613281,0.45067334175109863,0.96,0.86,0.00019842513149602464
1650,0.3532905578613281,0.4506717324256897,0.96,0.86,0.00019842513149602464
1651,0.35329052805900574,0.45067355036735535,0.96,0.86,0.00019842513149602464
1652,0.35329052805900574,0.450672447681427,0.96,0.86,0.00019842513149602464
1653,0.3532904386520386,0.45067232847213745,0.96,0.86,0.00019842513149602464
1654,0.3532904386520386,0.45067083835601807,0.96,0.86,0.00019842513149602464
1655,0.3532904386520386,0.45066893100738525,0.96,0.86,0.00019842513149602464
1656,0.3532904386520386,0.45066797733306885,0.96,0.86,0.00019842513149602464
1657,0.3532904088497162,0.45066797733306885,0.96,0.86,0.00019842513149602464
1658,0.3532903790473938,0.450666606426239,0.96,0.86,0.00019842513149602464
1659,0.3532903790473938,0.45066505670547485,0.96,0.86,0.00019842513149602464
1660,0.3532903790473938,0.45066407322883606,0.96,0.86,0.00019842513149602464
1661,0.3532903790473938,0.45066073536872864,0.96,0.86,0.00019842513149602464
1662,0.3532903790473938,0.4506605565547943,0.96,0.86,0.00019842513149602464
1663,0.35329025983810425,0.45065876841545105,0.96,0.86,0.00019842513149602464
1664,0.353290319442749,0.4506574869155884,0.96,0.86,0.00019842513149602464
1665,0.35329028964042664,0.4506552815437317,0.96,0.86,0.00019842513149602464
1666,0.35329025983810425,0.4506542980670929,0.96,0.86,0.00019842513149602464
1667,0.353290319442749,0.45065221190452576,0.96,0.86,0.00019842513149602464
1668,0.3532902002334595,0.4506506323814392,0.96,0.86,0.00019842513149602464
1669,0.3532902002334595,0.4506491422653198,0.96,0.86,0.00019842513149602464
1670,0.3532902002334595,0.45064622163772583,0.96,0.86,0.00019842513149602464
1671,0.3532902002334595,0.4506445825099945,0.96,0.86,0.00019842513149602464
1672,0.3532902002334595,0.45064330101013184,0.96,0.86,0.00019842513149602464
1673,0.3532901406288147,0.45064032077789307,0.96,0.86,0.00019842513149602464
1674,0.3532901704311371,0.4506378173828125,0.96,0.86,0.00019842513149602464
1675,0.3532901704311371,0.4506363570690155,0.96,0.86,0.00019842513149602464
1676,0.3532901108264923,0.4506346881389618,0.96,0.86,0.00019842513149602464
1677,0.3532901406288147,0.4506329298019409,0.96,0.86,0.00019842513149602464
1678,0.3532901406288147,0.45063087344169617,0.96,0.86,0.00019842513149602464
1679,0.3532901108264923,0.45063045620918274,0.96,0.86,0.00019842513149602464
1680,0.35329002141952515,0.4506300389766693,0.96,0.86,0.00019842513149602464
1681,0.35329005122184753,0.4506284296512604,0.96,0.86,0.00019842513149602464
1682,0.35328999161720276,0.4506268799304962,0.96,0.86,0.00019842513149602464
1683,0.35329002141952515,0.45062455534935,0.96,0.86,0.00019842513149602464
1684,0.35328996181488037,0.4506232440471649,0.96,0.86,0.00019842513149602464
1685,0.35328999161720276,0.4506213366985321,0.96,0.86,0.00019842513149602464
1686,0.35329002141952515,0.4506208896636963,0.96,0.86,0.00019842513149602464
1687,0.35329002141952515,0.45061957836151123,0.96,0.86,0.00019842513149602464
1688,0.35328996181488037,0.4506179690361023,0.96,0.86,0.00019842513149602464
1689,0.3532899022102356,0.4506167471408844,0.96,0.86,0.00019842513149602464
1690,0.35328996181488037,0.4506151080131531,0.96,0.86,0.00019842513149602464
1691,0.3532899022102356,0.4506126046180725,0.96,0.86,0.00019842513149602464
1692,0.3532899022102356,0.45061221718788147,0.96,0.86,0.00019842513149602464
1693,0.3532898724079132,0.45061057806015015,0.96,0.86,0.00019842513149602464
1694,0.3532898426055908,0.45060867071151733,0.96,0.86,0.00019842513149602464
1695,0.3532898724079132,0.45060694217681885,0.96,0.86,0.00019842513149602464
1696,0.3532898426055908,0.4506058096885681,0.96,0.86,0.00019842513149602464
1697,0.3532898426055908,0.4506046772003174,0.96,0.86,0.00019842513149602464
1698,0.35328975319862366,0.4506029486656189,0.96,0.86,0.00019842513149602464
1699,0.35328978300094604,0.4506003260612488,0.96,0.86,0.00019842513149602464
1700,0.35328972339630127,0.45059868693351746,0.96,0.86,0.00019842513149602464
1701,0.35328975319862366,0.45059868693351746,0.96,0.86,0.00019842513149602464
1702,0.35328975319862366,0.45059794187545776,0.96,0.86,0.00019842513149602464
1703,0.35328972339630127,0.4505974054336548,0.96,0.86,0.00019842513149602464
1704,0.35328972339630127,0.4505966603755951,0.96,0.86,0.00019842513149602464
1705,0.35328975319862366,0.4505959451198578,0.96,0.86,0.00019842513149602464
1706,0.3532896935939789,0.45059454441070557,0.96,0.86,0.00019842513149602464
1707,0.3532896935939789,0.45059412717819214,0.96,0.86,0.00015749013123685888
1708,0.3532896041870117,0.4505918622016907,0.96,0.86,0.00015749013123685888
1709,0.3532896339893341,0.45059165358543396,0.96,0.86,0.00015749013123685888
1710,0.35328957438468933,0.45059123635292053,0.96,0.86,0.00015749013123685888
1711,0.3532896339893341,0.4505905210971832,0.96,0.86,0.00015749013123685888
1712,0.35328957438468933,0.4505873918533325,0.96,0.86,0.00015749013123685888
1713,0.3532896041870117,0.450587660074234,0.96,0.86,0.00015749013123685888
1714,0.35328951478004456,0.4505869150161743,0.96,0.86,0.00015749013123685888
1715,0.35328957438468933,0.45058608055114746,0.96,0.86,0.00015749013123685888
1716,0.35328951478004456,0.450580894947052,0.96,0.86,0.00015749013123685888
1717,0.35328951478004456,0.45057952404022217,0.96,0.86,0.00015749013123685888
1718,0.35328951478004456,0.45057913661003113,0.96,0.86,0.00015749013123685888
1719,0.35328951478004456,0.4505783021450043,0.96,0.86,0.00015749013123685888
1720,0.35328957438468933,0.4505784213542938,0.96,0.86,0.00015749013123685888
1721,0.35328951478004456,0.4505772888660431,0.96,0.86,0.00015749013123685888
1722,0.3532894551753998,0.4505763649940491,0.96,0.86,0.00015749013123685888
1723,0.35328948497772217,0.45057567954063416,0.96,0.86,0.00015749013123685888
1724,0.3532894253730774,0.45057401061058044,0.96,0.86,0.00015749013123685888
1725,0.3532894253730774,0.45057418942451477,0.96,0.86,0.00015749013123685888
1726,0.35328948497772217,0.450573205947876,0.96,0.86,0.00015749013123685888
1727,0.3532894253730774,0.4505734145641327,0.96,0.86,0.00015749013123685888
1728,0.3532894551753998,0.45057323575019836,0.96,0.86,0.00015749013123685888
1729,0.3532894253730774,0.4505724608898163,0.96,0.86,0.00015749013123685888
1730,0.35328933596611023,0.4505714476108551,0.96,0.86,0.00015749013123685888
1731,0.3532894253730774,0.4505704939365387,0.96,0.86,0.00015749013123685888
1732,0.35328933596611023,0.4505694508552551,0.96,0.86,0.00015749013123685888
1733,0.35328933596611023,0.4505687355995178,0.96,0.86,0.00015749013123685888
1734,0.3532893657684326,0.4505675137042999,0.96,0.86,0.00015749013123685888
1735,0.35328933596611023,0.45056748390197754,0.96,0.86,0.00015749013123685888
1736,0.35328930616378784,0.45056653022766113,0.96,0.86,0.00015749013123685888
1737,0.35328933596611023,0.4505642056465149,0.96,0.86,0.00015749013123685888
1738,0.35328933596611023,0.4505615532398224,0.96,0.86,0.00015749013123685888
1739,0.35328933596611023,0.45056164264678955,0.96,0.86,0.00015749013123685888
1740,0.35328924655914307,0.4505607485771179,0.96,0.86,0.00015749013123685888
1741,0.35328930616378784,0.4505598545074463,0.96,0.86,0.00015749013123685888
1742,0.35328924655914307,0.45055869221687317,0.96,0.86,0.00015749013123685888
1743,0.35328924655914307,0.4505577087402344,0.96,0.86,0.00015749013123685888
1744,0.35328924655914307,0.45055893063545227,0.96,0.86,0.00015749013123685888
1745,0.3532892167568207,0.4505577087402344,0.96,0.86,0.00015749013123685888
1746,0.3532892167568207,0.45055699348449707,0.96,0.86,0.00015749013123685888
1747,0.3532892167568207,0.4505563974380493,0.96,0.86,0.00015749013123685888
1748,0.35328909754753113,0.4505556523799896,0.96,0.86,0.00015749013123685888
1749,0.3532891869544983,0.4505542516708374,0.96,0.86,0.00015749013123685888
1750,0.3532891869544983,0.45055335760116577,0.96,0.86,0.00015749013123685888
1751,0.35328909754753113,0.45055249333381653,0.96,0.86,0.00015749013123685888
1752,0.3532891869544983,0.4505506753921509,0.96,0.86,0.00015749013123685888
1753,0.35328909754753113,0.45054981112480164,0.96,0.86,0.00015749013123685888
1754,0.35328909754753113,0.45054855942726135,0.96,0.86,0.00015749013123685888
1755,0.35328909754753113,0.4505472481250763,0.96,0.86,0.00015749013123685888
1756,0.35328906774520874,0.45054516196250916,0.96,0.86,0.00015749013123685888
1757,0.35328909754753113,0.4505443871021271,0.96,0.86,0.00015749013123685888
1758,0.35328906774520874,0.45054227113723755,0.96,0.86,0.00015749013123685888
1759,0.35328906774520874,0.45054787397384644,0.96,0.86,0.00015749013123685888
1760,0.35328909754753113,0.45054665207862854,0.96,0.86,0.00015749013123685888
1761,0.35328903794288635,0.45054516196250916,0.96,0.86,0.00015749013123685888
1762,0.35328900814056396,0.45054513216018677,0.96,0.86,0.00015749013123685888
1763,0.35328900814056396,0.4505457282066345,0.96,0.86,0.00015749013123685888
1764,0.3532889485359192,0.45054471492767334,0.96,0.86,0.00015749013123685888
1765,0.35328900814056396,0.4505442678928375,0.96,0.86,0.00015749013123685888
1766,0.3532889485359192,0.45054271817207336,0.96,0.86,0.00015749013123685888
1767,0.35328900814056396,0.4505414664745331,0.96,0.86,0.00015749013123685888
1768,0.3532889485359192,0.45054107904434204,0.96,0.86,0.00015749013123685888
1769,0.3532889485359192,0.4505399763584137,0.96,0.86,0.00015749013123685888
1770,0.3532889187335968,0.45053941011428833,0.96,0.86,0.00015749013123685888
1771,0.3532889187335968,0.45053771138191223,0.96,0.86,0.00015749013123685888
1772,0.35328900814056396,0.45053631067276,0.96,0.86,0.00015749013123685888
1773,0.35328882932662964,0.4505358040332794,0.96,0.86,0.00015749013123685888
1774,0.35328882932662964,0.4505346715450287,0.96,0.86,0.00015749013123685888
1775,0.3532888889312744,0.4505336880683899,0.96,0.86,0.00015749013123685888
1776,0.3532888889312744,0.4505331516265869,0.96,0.86,0.00015749013123685888
1777,0.35328882932662964,0.4505319595336914,0.96,0.86,0.00015749013123685888
1778,0.3532888889312744,0.45052990317344666,0.96,0.86,0.00015749013123685888
1779,0.35328879952430725,0.45052894949913025,0.96,0.86,0.00015749013123685888
1780,0.35328882932662964,0.4505261182785034,0.96,0.86,0.00015749013123685888
1781,0.35328879952430725,0.45052531361579895,0.96,0.86,0.00015749013123685888
1782,0.35328879952430725,0.4505259394645691,0.96,0.86,0.00015749013123685888
1783,0.35328876972198486,0.4505252540111542,0.96,0.86,0.00015749013123685888
1784,0.35328876972198486,0.45052334666252136,0.96,0.86,0.00015749013123685888
1785,0.35328876972198486,0.4505212903022766,0.96,0.86,0.00015749013123685888
1786,0.35328876972198486,0.45052000880241394,0.96,0.86,0.00015749013123685888
1787,0.3532887399196625,0.4505184292793274,0.96,0.86,0.00015749013123685888
1788,0.3532887399196625,0.45051705837249756,0.96,0.86,0.00015749013123685888
1789,0.3532887399196625,0.4505162537097931,0.96,0.86,0.00015749013123685888
1790,0.3532886803150177,0.45051488280296326,0.96,0.86,0.00015749013123685888
