,train loss,val loss,train acc,val acc,lr
0,0.6933712959289551,0.6881937980651855,0.53,0.67,0.001
1,0.6857138276100159,0.6836056709289551,0.68,0.68,0.001
2,0.6783036589622498,0.6789309978485107,0.7,0.68,0.001
3,0.6707629561424255,0.6738525629043579,0.72,0.69,0.001
4,0.6626573204994202,0.6680360436439514,0.73,0.7,0.001
5,0.653501570224762,0.6611136794090271,0.74,0.69,0.001
6,0.6427238583564758,0.6526880860328674,0.76,0.68,0.001
7,0.6296321749687195,0.6424335241317749,0.74,0.69,0.001
8,0.613467812538147,0.6306087970733643,0.77,0.67,0.001
9,0.5938276648521423,0.6207889914512634,0.76,0.68,0.001
10,0.5726888179779053,0.6339915990829468,0.75,0.6,0.001
11,0.5665239095687866,0.614825963973999,0.73,0.62,0.001
12,0.5498977303504944,0.5973321199417114,0.75,0.67,0.001
13,0.5391421318054199,0.5914232134819031,0.74,0.69,0.001
14,0.5365651845932007,0.5799509882926941,0.75,0.7,0.001
15,0.5286911129951477,0.5675109028816223,0.75,0.74,0.001
16,0.5145408511161804,0.5756567120552063,0.81,0.72,0.001
17,0.5168051719665527,0.5766462087631226,0.79,0.72,0.001
18,0.5175803303718567,0.5632087588310242,0.78,0.74,0.001
19,0.5091610550880432,0.5540955662727356,0.8,0.75,0.001
20,0.5076913833618164,0.5543856024742126,0.81,0.75,0.001
21,0.5043920278549194,0.5595341324806213,0.81,0.75,0.001
22,0.496008962392807,0.5662749409675598,0.83,0.73,0.001
23,0.49029088020324707,0.571657657623291,0.83,0.7,0.001
24,0.4912348985671997,0.5740265846252441,0.84,0.69,0.001
25,0.4903375208377838,0.5741541385650635,0.84,0.73,0.001
26,0.4845103919506073,0.5703091621398926,0.83,0.73,0.001
27,0.4810567796230316,0.5628631711006165,0.82,0.74,0.001
28,0.47657397389411926,0.5577424764633179,0.84,0.74,0.001
29,0.4769207835197449,0.5574468374252319,0.82,0.74,0.001
30,0.47496238350868225,0.5587509870529175,0.82,0.75,0.001
31,0.47425171732902527,0.5570400357246399,0.83,0.74,0.001
32,0.46850109100341797,0.5553850531578064,0.83,0.72,0.001
33,0.4680103659629822,0.5616838335990906,0.84,0.74,0.001
34,0.47654420137405396,0.5531683564186096,0.83,0.72,0.001
35,0.46623095870018005,0.5527129173278809,0.85,0.74,0.001
36,0.4619787335395813,0.5501599907875061,0.85,0.76,0.001
37,0.45874282717704773,0.5468149185180664,0.87,0.76,0.001
38,0.45631930232048035,0.5452269911766052,0.87,0.76,0.001
39,0.4543628692626953,0.5436963438987732,0.87,0.77,0.001
40,0.45142319798469543,0.5427161455154419,0.87,0.76,0.001
41,0.44758141040802,0.5439512133598328,0.88,0.76,0.001
42,0.4466041624546051,0.5429614186286926,0.89,0.76,0.001
43,0.44271358847618103,0.5412560105323792,0.89,0.76,0.001
44,0.4412440359592438,0.5383590459823608,0.89,0.77,0.001
45,0.4379608929157257,0.5369797348976135,0.9,0.77,0.001
46,0.4346896708011627,0.5346193909645081,0.9,0.77,0.001
47,0.4327889382839203,0.5296365022659302,0.9,0.78,0.001
48,0.432934045791626,0.5324666500091553,0.9,0.77,0.001
49,0.429728627204895,0.533668577671051,0.9,0.77,0.001
50,0.4286074936389923,0.5313928723335266,0.9,0.77,0.001
51,0.42913585901260376,0.5354591012001038,0.9,0.77,0.001
52,0.42765218019485474,0.5330414175987244,0.9,0.78,0.001
53,0.42620840668678284,0.5276631116867065,0.9,0.78,0.001
54,0.4262208938598633,0.5307037830352783,0.9,0.77,0.001
55,0.42650142312049866,0.5256194472312927,0.89,0.8,0.001
56,0.4261581301689148,0.5319092273712158,0.9,0.76,0.001
57,0.42326509952545166,0.5325928330421448,0.9,0.76,0.001
58,0.42317426204681396,0.5259244441986084,0.9,0.78,0.001
59,0.422067254781723,0.5246638655662537,0.9,0.79,0.001
60,0.4208972454071045,0.526859700679779,0.9,0.77,0.001
61,0.4211328625679016,0.5254648923873901,0.9,0.78,0.001
62,0.41895735263824463,0.5242670178413391,0.89,0.78,0.001
63,0.41915184259414673,0.5270127654075623,0.9,0.78,0.001
64,0.4181087017059326,0.5275947451591492,0.89,0.77,0.001
65,0.41797584295272827,0.5226197838783264,0.9,0.79,0.001
66,0.41682010889053345,0.5192846655845642,0.9,0.78,0.001
67,0.416889488697052,0.5218154191970825,0.9,0.78,0.001
68,0.416502445936203,0.5199337601661682,0.9,0.79,0.001
69,0.4154617190361023,0.5188713669776917,0.9,0.79,0.001
70,0.4155958890914917,0.522584080696106,0.9,0.78,0.001
71,0.41559746861457825,0.5161078572273254,0.9,0.79,0.001
72,0.41443154215812683,0.5162838101387024,0.9,0.78,0.001
73,0.4137576222419739,0.5139948129653931,0.9,0.79,0.001
74,0.41337302327156067,0.5156310796737671,0.9,0.8,0.001
75,0.4128860533237457,0.5133264660835266,0.9,0.78,0.001
76,0.4127517342567444,0.5201809406280518,0.89,0.78,0.001
77,0.41316819190979004,0.5167865753173828,0.9,0.79,0.001
78,0.41176170110702515,0.5127866864204407,0.89,0.79,0.001
79,0.4126895070075989,0.5245019793510437,0.91,0.78,0.001
80,0.4181617796421051,0.520230233669281,0.89,0.78,0.001
81,0.41255760192871094,0.5145220756530762,0.9,0.79,0.001
82,0.42193281650543213,0.55281001329422,0.89,0.76,0.001
83,0.4368690252304077,0.5150130987167358,0.87,0.78,0.001
84,0.40956419706344604,0.5031134486198425,0.9,0.81,0.001
85,0.4487338364124298,0.511395275592804,0.86,0.8,0.001
86,0.4090070426464081,0.5314755439758301,0.89,0.77,0.001
87,0.42084309458732605,0.5250168442726135,0.88,0.78,0.001
88,0.41375160217285156,0.5073533654212952,0.9,0.8,0.001
89,0.40948066115379333,0.5041829943656921,0.9,0.8,0.001
90,0.4153554439544678,0.5059841275215149,0.9,0.8,0.001
91,0.40858304500579834,0.5107963681221008,0.9,0.79,0.001
92,0.4099064767360687,0.5117976665496826,0.9,0.79,0.001
93,0.4090353846549988,0.5013456344604492,0.9,0.8,0.001
94,0.41022759675979614,0.5223958492279053,0.91,0.78,0.001
95,0.4146495759487152,0.5370343923568726,0.89,0.77,0.001
96,0.4280434846878052,0.5152708888053894,0.87,0.79,0.001
97,0.41665610671043396,0.5033091902732849,0.9,0.8,0.001
98,0.41307345032691956,0.5000740885734558,0.9,0.8,0.001
99,0.4163059890270233,0.5042679905891418,0.89,0.8,0.001
100,0.406789094209671,0.5179866552352905,0.9,0.8,0.001
101,0.4134785532951355,0.5195583701133728,0.89,0.78,0.001
102,0.41172489523887634,0.519112765789032,0.9,0.78,0.001
103,0.41307008266448975,0.5130268335342407,0.89,0.78,0.001
104,0.4094046354293823,0.504662811756134,0.9,0.8,0.001
105,0.40405774116516113,0.5036411285400391,0.91,0.8,0.001
106,0.4139018654823303,0.505496621131897,0.9,0.8,0.001
107,0.40333300828933716,0.5084367394447327,0.91,0.79,0.001
108,0.40792518854141235,0.5085921287536621,0.9,0.79,0.001
109,0.40764668583869934,0.5049791932106018,0.9,0.79,0.001
110,0.4047568142414093,0.4980989694595337,0.9,0.81,0.001
111,0.4027051627635956,0.49959123134613037,0.91,0.81,0.001
112,0.4057730436325073,0.49832621216773987,0.91,0.81,0.001
113,0.40248623490333557,0.49924033880233765,0.91,0.81,0.001
114,0.40248963236808777,0.502376914024353,0.91,0.8,0.001
115,0.40350615978240967,0.5031449794769287,0.9,0.8,0.001
116,0.40321671962738037,0.5006589293479919,0.91,0.81,0.001
117,0.4019564092159271,0.4985421895980835,0.91,0.81,0.001
118,0.4016292989253998,0.49845167994499207,0.91,0.8,0.001
119,0.4025832712650299,0.49895739555358887,0.91,0.8,0.001
120,0.4017437696456909,0.5003677606582642,0.91,0.81,0.001
121,0.4011724591255188,0.5023988485336304,0.91,0.8,0.001
122,0.4014963209629059,0.5024402141571045,0.91,0.8,0.001
123,0.40164220333099365,0.5004621744155884,0.91,0.81,0.001
124,0.40113329887390137,0.4989517629146576,0.91,0.81,0.001
125,0.40066683292388916,0.49923503398895264,0.91,0.8,0.001
126,0.4008675515651703,0.4996795356273651,0.91,0.8,0.001
127,0.4009457528591156,0.49941956996917725,0.91,0.81,0.001
128,0.4004474878311157,0.49929341673851013,0.91,0.81,0.001
129,0.40028178691864014,0.4996819794178009,0.91,0.81,0.001
130,0.4004395306110382,0.4998100996017456,0.91,0.81,0.001
131,0.40034404397010803,0.4995989203453064,0.91,0.81,0.001
132,0.40002354979515076,0.4995669424533844,0.91,0.81,0.001
133,0.3999168276786804,0.4993671476840973,0.91,0.8,0.001
134,0.4000013470649719,0.49860602617263794,0.91,0.81,0.001
135,0.39986416697502136,0.4979320764541626,0.91,0.81,0.001
136,0.3996547758579254,0.4980495870113373,0.91,0.81,0.001
137,0.3996429741382599,0.4987744987010956,0.91,0.81,0.001
138,0.39962494373321533,0.4994226396083832,0.91,0.81,0.001
139,0.3995037376880646,0.4996667206287384,0.91,0.81,0.001
140,0.3994036614894867,0.4993201196193695,0.91,0.81,0.001
141,0.39935317635536194,0.4981999099254608,0.91,0.81,0.001
142,0.39929091930389404,0.49701255559921265,0.91,0.81,0.001
143,0.3992293179035187,0.4969800114631653,0.91,0.81,0.001
144,0.3991749584674835,0.49814918637275696,0.91,0.81,0.001
145,0.399085134267807,0.4996211528778076,0.91,0.81,0.001
146,0.39902636408805847,0.501264214515686,0.91,0.81,0.001
147,0.3990078270435333,0.5011334419250488,0.91,0.81,0.001
148,0.39893460273742676,0.4993728697299957,0.91,0.81,0.001
149,0.3988455533981323,0.4980660676956177,0.91,0.81,0.001
150,0.3988116383552551,0.4976310431957245,0.91,0.81,0.001
151,0.39877891540527344,0.49830952286720276,0.91,0.81,0.001
152,0.39870819449424744,0.4998016059398651,0.91,0.81,0.001
153,0.39864581823349,0.5015888810157776,0.91,0.81,0.001
154,0.3986034691333771,0.5019253492355347,0.91,0.81,0.001
155,0.3985571563243866,0.5009508728981018,0.91,0.81,0.001
156,0.3985065221786499,0.5001163482666016,0.91,0.81,0.001
157,0.39845511317253113,0.49966883659362793,0.91,0.81,0.001
158,0.39839988946914673,0.4995740056037903,0.91,0.81,0.001
159,0.3983532190322876,0.4997650980949402,0.91,0.81,0.001
160,0.39831310510635376,0.5000462532043457,0.91,0.81,0.001
161,0.3982580900192261,0.5003026723861694,0.91,0.81,0.001
162,0.39820152521133423,0.50054931640625,0.91,0.81,0.001
163,0.3981582224369049,0.5007287859916687,0.91,0.81,0.001
164,0.398112416267395,0.500751256942749,0.91,0.81,0.001
165,0.39805614948272705,0.5006054043769836,0.91,0.81,0.001
166,0.3980017602443695,0.5003678798675537,0.91,0.81,0.001
167,0.3979526460170746,0.5002074241638184,0.91,0.81,0.001
168,0.3978997766971588,0.5002738237380981,0.91,0.81,0.001
169,0.39784345030784607,0.50056391954422,0.91,0.81,0.001
170,0.3977869153022766,0.5009278655052185,0.91,0.81,0.001
171,0.39772894978523254,0.5011944770812988,0.91,0.81,0.001
172,0.39767125248908997,0.5012452006340027,0.91,0.81,0.001
173,0.3976113498210907,0.5011114478111267,0.91,0.81,0.001
174,0.3975466787815094,0.5009821057319641,0.91,0.81,0.001
175,0.39748355746269226,0.5010029673576355,0.91,0.81,0.001
176,0.3974207937717438,0.5012081265449524,0.91,0.81,0.001
177,0.39735233783721924,0.5015313625335693,0.91,0.81,0.001
178,0.3972829580307007,0.5018455386161804,0.91,0.81,0.001
179,0.3972150683403015,0.5020238757133484,0.91,0.81,0.001
180,0.3971436321735382,0.5020602345466614,0.91,0.81,0.001
181,0.39707043766975403,0.5020512938499451,0.91,0.81,0.001
182,0.39699745178222656,0.5021222233772278,0.92,0.81,0.001
183,0.3969229757785797,0.5023658275604248,0.92,0.81,0.001
184,0.39684706926345825,0.5027720332145691,0.92,0.81,0.001
185,0.39677006006240845,0.5032063126564026,0.92,0.81,0.001
186,0.3966931402683258,0.5034887790679932,0.92,0.81,0.001
187,0.39661556482315063,0.5035651922225952,0.92,0.81,0.001
188,0.3965366780757904,0.5035807490348816,0.92,0.81,0.001
189,0.39645853638648987,0.5037435293197632,0.92,0.81,0.001
190,0.3963804244995117,0.5041056275367737,0.92,0.81,0.001
191,0.3963014483451843,0.5044372081756592,0.92,0.8,0.001
192,0.39622393250465393,0.5044097304344177,0.92,0.8,0.001
193,0.39614659547805786,0.5039718151092529,0.92,0.8,0.001
194,0.39606907963752747,0.5034446716308594,0.92,0.8,0.001
195,0.39599311351776123,0.5031895637512207,0.92,0.79,0.001
196,0.39591720700263977,0.5031998157501221,0.92,0.8,0.001
197,0.3958417773246765,0.5031577348709106,0.92,0.8,0.001
198,0.39576759934425354,0.5028675198554993,0.92,0.8,0.001
199,0.39569327235221863,0.5024754405021667,0.92,0.8,0.001
200,0.3956198990345001,0.5022946000099182,0.92,0.8,0.001
201,0.3955470323562622,0.5024564862251282,0.92,0.8,0.001
202,0.3954738974571228,0.5028093457221985,0.92,0.8,0.001
203,0.39540085196495056,0.503264307975769,0.92,0.8,0.001
204,0.39532583951950073,0.5046369433403015,0.92,0.8,0.001
205,0.39524224400520325,0.5115781426429749,0.92,0.79,0.001
206,0.3950795829296112,0.5180792808532715,0.92,0.79,0.001
207,0.38612598180770874,0.5357826948165894,0.93,0.77,0.001
208,0.41269925236701965,0.5404335260391235,0.9,0.78,0.001
209,0.5231672525405884,0.6457034945487976,0.79,0.67,0.001
210,0.6298799514770508,0.5946557521820068,0.66,0.72,0.001
211,0.5474336743354797,0.5802022218704224,0.77,0.73,0.001
212,0.5346075296401978,0.5721039772033691,0.78,0.73,0.001
213,0.537175714969635,0.5640277862548828,0.77,0.75,0.001
214,0.5244389176368713,0.5619726777076721,0.78,0.74,0.001
215,0.5245062112808228,0.5680501461029053,0.78,0.74,0.001
216,0.525846004486084,0.5669218301773071,0.79,0.74,0.001
217,0.5222845673561096,0.5662736892700195,0.79,0.75,0.001
218,0.5222316980361938,0.5772069692611694,0.79,0.74,0.001
219,0.516822099685669,0.5519466996192932,0.8,0.75,0.001
220,0.5112915635108948,0.5566792488098145,0.8,0.76,0.001
221,0.5238324999809265,0.5655938982963562,0.79,0.75,0.001
222,0.5184457898139954,0.5761174559593201,0.79,0.73,0.001
223,0.5310533046722412,0.5667698383331299,0.78,0.74,0.001
224,0.5251808762550354,0.5568434000015259,0.79,0.75,0.001
225,0.5133388042449951,0.5457924008369446,0.8,0.76,0.001
226,0.5364850759506226,0.5431607365608215,0.77,0.78,0.001
227,0.5251574516296387,0.5709536075592041,0.79,0.74,0.001
228,0.5360575914382935,0.5949442982673645,0.77,0.71,0.001
229,0.5675270557403564,0.5901561379432678,0.75,0.72,0.001
230,0.5638388991355896,0.5866246223449707,0.75,0.72,0.001
231,0.5373181700706482,0.5851706862449646,0.77,0.72,0.001
232,0.537428617477417,0.6033484935760498,0.77,0.71,0.001
233,0.5555272102355957,0.5873956084251404,0.76,0.72,0.001
234,0.5408828258514404,0.5812046527862549,0.77,0.73,0.001
235,0.5231462121009827,0.5668777227401733,0.79,0.74,0.001
236,0.5259337425231934,0.5413295030593872,0.78,0.77,0.001
237,0.5275029540061951,0.5404943823814392,0.78,0.78,0.001
238,0.5407691597938538,0.5341236591339111,0.76,0.76,0.001
239,0.5329650640487671,0.5593457221984863,0.77,0.75,0.001
240,0.5282609462738037,0.5706065893173218,0.78,0.74,0.001
241,0.5235181450843811,0.5811489820480347,0.79,0.73,0.001
242,0.5348423719406128,0.6147036552429199,0.78,0.7,0.001
243,0.5771476626396179,0.6194682121276855,0.73,0.69,0.001
244,0.576490581035614,0.5827715396881104,0.73,0.73,0.001
245,0.5356370806694031,0.5744733214378357,0.78,0.74,0.001
246,0.5286275148391724,0.560555100440979,0.78,0.74,0.001
247,0.5217618346214294,0.5255992412567139,0.79,0.79,0.001
248,0.5172489881515503,0.5456259250640869,0.79,0.76,0.001
249,0.5334874987602234,0.5438352823257446,0.77,0.76,0.001
250,0.5116775631904602,0.5279576778411865,0.8,0.78,0.001
251,0.5083848237991333,0.5308021306991577,0.81,0.78,0.001
252,0.508306086063385,0.530003547668457,0.81,0.78,0.001
253,0.5179041624069214,0.5416236519813538,0.8,0.76,0.001
254,0.5284898281097412,0.5426170825958252,0.78,0.76,0.001
255,0.5313759446144104,0.5379428267478943,0.78,0.77,0.001
256,0.5332373380661011,0.5234177112579346,0.78,0.79,0.001
257,0.5398719906806946,0.5231421589851379,0.78,0.79,0.001
258,0.5404021143913269,0.5360829830169678,0.77,0.77,0.001
259,0.535086452960968,0.5411357283592224,0.78,0.77,0.001
260,0.5306755900382996,0.5427477359771729,0.78,0.76,0.001
261,0.5355426073074341,0.5332059860229492,0.77,0.77,0.001
262,0.5220040678977966,0.5348852872848511,0.79,0.77,0.001
263,0.5197387337684631,0.5342081189155579,0.79,0.77,0.001
264,0.5328108668327332,0.5260172486305237,0.78,0.78,0.001
265,0.5208389759063721,0.5268944501876831,0.79,0.78,0.001
266,0.515310525894165,0.5214940309524536,0.8,0.79,0.001
267,0.5081734657287598,0.5300859212875366,0.81,0.78,0.001
268,0.508341372013092,0.5355286598205566,0.8,0.77,0.001
269,0.5157680511474609,0.5327774286270142,0.8,0.78,0.001
270,0.5132430195808411,0.5204481482505798,0.79,0.8,0.001
271,0.5071709156036377,0.5299546122550964,0.8,0.78,0.001
272,0.5086631178855896,0.5340836048126221,0.81,0.77,0.001
273,0.5122878551483154,0.5349721908569336,0.8,0.77,0.001
274,0.5127637386322021,0.5322530269622803,0.8,0.78,0.001
275,0.5100975036621094,0.5274503827095032,0.8,0.78,0.001
276,0.5070664882659912,0.526687502861023,0.8,0.79,0.001
277,0.5083399415016174,0.533835768699646,0.8,0.77,0.001
278,0.5108831524848938,0.5280942320823669,0.79,0.79,0.001
279,0.5092306733131409,0.5266401171684265,0.79,0.79,0.001
280,0.5070280432701111,0.5308848023414612,0.8,0.78,0.001
281,0.508046567440033,0.5338247418403625,0.8,0.77,0.001
282,0.5094003677368164,0.5337013006210327,0.8,0.77,0.001
283,0.5091894268989563,0.5309324860572815,0.8,0.78,0.001
284,0.5077903270721436,0.5272891521453857,0.8,0.79,0.001
285,0.507066547870636,0.5264006853103638,0.8,0.79,0.001
286,0.5081340074539185,0.5267690420150757,0.8,0.79,0.001
287,0.5085815191268921,0.5264720320701599,0.8,0.79,0.001
288,0.5074859857559204,0.5287087559700012,0.8,0.78,0.001
289,0.5070529580116272,0.5314913988113403,0.8,0.77,0.001
290,0.5076786279678345,0.5323855876922607,0.8,0.77,0.001
291,0.5079985857009888,0.5311402082443237,0.8,0.78,0.001
292,0.5075311660766602,0.5285196304321289,0.8,0.78,0.001
293,0.5069631338119507,0.52653968334198,0.8,0.79,0.001
294,0.5071406364440918,0.5260143280029297,0.8,0.79,0.001
295,0.5075384378433228,0.5260759592056274,0.8,0.79,0.001
296,0.5072647333145142,0.5270358324050903,0.8,0.79,0.001
297,0.5068421363830566,0.5287013053894043,0.8,0.78,0.001
298,0.5069338083267212,0.5296763777732849,0.8,0.78,0.001
299,0.5071722269058228,0.5292071104049683,0.8,0.78,0.001
300,0.5070627331733704,0.5276719927787781,0.8,0.78,0.001
301,0.5067590475082397,0.5261988639831543,0.8,0.79,0.001
302,0.5067121982574463,0.5254973769187927,0.8,0.79,0.001
303,0.5068804025650024,0.525387167930603,0.8,0.79,0.001
304,0.5068483352661133,0.5257511734962463,0.8,0.79,0.001
305,0.5066341161727905,0.526530385017395,0.8,0.79,0.001
306,0.5065754055976868,0.5271852016448975,0.8,0.78,0.001
307,0.5066724419593811,0.5271574258804321,0.8,0.78,0.001
308,0.5066717863082886,0.5264647006988525,0.8,0.78,0.0007937005259840996
309,0.5065345168113708,0.5257773399353027,0.8,0.79,0.0007937005259840996
310,0.5064609050750732,0.5252588391304016,0.8,0.79,0.0007937005259840996
311,0.5064771771430969,0.525012731552124,0.8,0.79,0.0007937005259840996
312,0.5065091252326965,0.525002121925354,0.8,0.79,0.0007937005259840996
313,0.5064749121665955,0.5251893401145935,0.8,0.79,0.0007937005259840996
314,0.5064030885696411,0.5255067944526672,0.8,0.79,0.0007937005259840996
315,0.506369948387146,0.5257930159568787,0.8,0.79,0.0007937005259840996
316,0.5063838958740234,0.5258748531341553,0.8,0.79,0.0007937005259840996
317,0.5063887238502502,0.5257020592689514,0.8,0.79,0.0007937005259840996
318,0.5063524842262268,0.5253758430480957,0.8,0.79,0.0007937005259840996
319,0.5063056349754333,0.525056779384613,0.8,0.79,0.0007937005259840996
320,0.5062878131866455,0.5248520970344543,0.8,0.79,0.0007937005259840996
321,0.5062924027442932,0.5247843265533447,0.8,0.79,0.0007937005259840996
322,0.5062841773033142,0.5248367190361023,0.8,0.79,0.0007937005259840996
323,0.5062529444694519,0.5249775052070618,0.8,0.79,0.0007937005259840996
324,0.5062224864959717,0.5251423716545105,0.8,0.79,0.0007937005259840996
325,0.5062109231948853,0.5252445340156555,0.8,0.79,0.0007937005259840996
326,0.5062084197998047,0.5252256989479065,0.8,0.79,0.0007937005259840996
327,0.5061953067779541,0.5250954031944275,0.8,0.79,0.0007937005259840996
328,0.506170392036438,0.5249183177947998,0.8,0.79,0.0007937005259840996
329,0.5061483979225159,0.5247652530670166,0.8,0.79,0.0007937005259840996
330,0.5061379075050354,0.5246756672859192,0.8,0.79,0.0007937005259840996
331,0.5061309933662415,0.5246561169624329,0.8,0.79,0.0007937005259840996
332,0.5061166882514954,0.5246950387954712,0.8,0.79,0.0007937005259840996
333,0.5060966610908508,0.5247679352760315,0.8,0.79,0.0007937005259840996
334,0.5060797929763794,0.5248360633850098,0.8,0.79,0.0007937005259840996
335,0.5060693621635437,0.5248603224754333,0.8,0.79,0.0007937005259840996
336,0.506060004234314,0.5248220562934875,0.8,0.79,0.0007937005259840996
337,0.5060462355613708,0.5247341394424438,0.8,0.79,0.0007937005259840996
338,0.5060293078422546,0.5246292948722839,0.8,0.79,0.0007937005259840996
339,0.506014883518219,0.524539053440094,0.8,0.79,0.0007937005259840996
340,0.506003737449646,0.5244810581207275,0.8,0.79,0.0007937005259840996
341,0.5059933662414551,0.5244587659835815,0.8,0.79,0.0007937005259840996
342,0.5059800148010254,0.5244647264480591,0.8,0.79,0.0007937005259840996
343,0.5059652328491211,0.524483859539032,0.8,0.79,0.0007937005259840996
344,0.5059518218040466,0.5244957208633423,0.8,0.79,0.0007937005259840996
345,0.5059405565261841,0.5244821310043335,0.8,0.79,0.0007937005259840996
346,0.5059293508529663,0.5244362354278564,0.8,0.79,0.0007937005259840996
347,0.5059162378311157,0.5243649482727051,0.8,0.79,0.0007937005259840996
348,0.5059025287628174,0.5242836475372314,0.8,0.79,0.0007937005259840996
349,0.5058895349502563,0.5242078900337219,0.8,0.79,0.0007937005259840996
350,0.505877673625946,0.5241480469703674,0.8,0.79,0.0007937005259840996
351,0.5058656930923462,0.5241071581840515,0.8,0.79,0.0007937005259840996
352,0.5058528780937195,0.5240814089775085,0.8,0.79,0.0007937005259840996
353,0.5058394074440002,0.5240617394447327,0.8,0.79,0.0007937005259840996
354,0.5058263540267944,0.5240362286567688,0.8,0.79,0.0007937005259840996
355,0.5058138966560364,0.5239949226379395,0.8,0.79,0.0007937005259840996
356,0.505801260471344,0.5239328742027283,0.8,0.79,0.0007937005259840996
357,0.5057879090309143,0.5238529443740845,0.8,0.79,0.0007937005259840996
358,0.5057742595672607,0.5237628817558289,0.8,0.79,0.0007937005259840996
359,0.505760669708252,0.5236724615097046,0.8,0.79,0.0007937005259840996
360,0.5057471990585327,0.5235893726348877,0.8,0.79,0.0007937005259840996
361,0.5057336688041687,0.5235181450843811,0.8,0.79,0.0007937005259840996
362,0.5057196021080017,0.5234572887420654,0.8,0.79,0.0007937005259840996
363,0.5057051181793213,0.523399293422699,0.8,0.79,0.0007937005259840996
364,0.5056905150413513,0.5233351588249207,0.8,0.79,0.0007937005259840996
365,0.5056758522987366,0.5232560634613037,0.8,0.79,0.0007937005259840996
366,0.505660891532898,0.5231571197509766,0.8,0.79,0.0007937005259840996
367,0.5056455135345459,0.5230392813682556,0.8,0.79,0.0007937005259840996
368,0.5056294202804565,0.5229085683822632,0.8,0.79,0.0007937005259840996
369,0.5056131482124329,0.5227742195129395,0.8,0.79,0.0007937005259840996
370,0.5055965185165405,0.5226449966430664,0.8,0.79,0.0007937005259840996
371,0.5055794715881348,0.5225258469581604,0.8,0.79,0.0007937005259840996
372,0.5055617094039917,0.5224152207374573,0.8,0.79,0.0007937005259840996
373,0.5055433511734009,0.5223044753074646,0.8,0.79,0.0007937005259840996
374,0.5055245161056519,0.522182822227478,0.8,0.79,0.0007937005259840996
375,0.5055050253868103,0.5220403075218201,0.8,0.79,0.0007937005259840996
376,0.5054848194122314,0.5218720436096191,0.8,0.79,0.0007937005259840996
377,0.5054638385772705,0.5216795802116394,0.8,0.79,0.0007937005259840996
378,0.5054419636726379,0.5214706659317017,0.8,0.79,0.0007937005259840996
379,0.5054193735122681,0.5212556719779968,0.8,0.79,0.0007937005259840996
380,0.5053958296775818,0.521043062210083,0.8,0.79,0.0007937005259840996
381,0.5053713917732239,0.5208346247673035,0.8,0.79,0.0007937005259840996
382,0.5053458213806152,0.520624041557312,0.8,0.79,0.0007937005259840996
383,0.5053192377090454,0.5203987956047058,0.8,0.79,0.0007937005259840996
384,0.5052914619445801,0.5201452374458313,0.8,0.79,0.0007937005259840996
385,0.5052624940872192,0.5198546051979065,0.8,0.79,0.0007937005259840996
386,0.5052322149276733,0.5195263028144836,0.8,0.79,0.0007937005259840996
387,0.5052005052566528,0.5191685557365417,0.8,0.79,0.0007937005259840996
388,0.5051673650741577,0.5187952518463135,0.8,0.79,0.0007937005259840996
389,0.5051326155662537,0.5184190273284912,0.8,0.79,0.0007937005259840996
390,0.5050963163375854,0.518045961856842,0.8,0.79,0.0007937005259840996
391,0.505058228969574,0.5176733136177063,0.8,0.79,0.0007937005259840996
392,0.5050182342529297,0.5172939896583557,0.8,0.79,0.0007937005259840996
393,0.5049764513969421,0.5169023275375366,0.8,0.8,0.0007937005259840996
394,0.5049325823783875,0.5165005326271057,0.8,0.8,0.0007937005259840996
395,0.5048864483833313,0.5160992741584778,0.8,0.8,0.0007937005259840996
396,0.5048381686210632,0.515714168548584,0.8,0.8,0.0007937005259840996
397,0.5047875046730042,0.5153581500053406,0.8,0.8,0.0007937005259840996
398,0.5047343373298645,0.515036940574646,0.8,0.8,0.0007937005259840996
399,0.5046787858009338,0.51474928855896,0.8,0.8,0.0007937005259840996
400,0.5046204328536987,0.5144900679588318,0.8,0.8,0.0007937005259840996
401,0.5045593976974487,0.5142557621002197,0.8,0.8,0.0007937005259840996
402,0.5044955015182495,0.5140447616577148,0.8,0.8,0.0007937005259840996
403,0.5044286251068115,0.5138580799102783,0.81,0.8,0.0007937005259840996
404,0.50435870885849,0.5136956572532654,0.81,0.8,0.0007937005259840996
405,0.5042856931686401,0.5135555863380432,0.81,0.8,0.0007937005259840996
406,0.5042092800140381,0.5134342312812805,0.81,0.8,0.0007937005259840996
407,0.5041295886039734,0.5133277773857117,0.81,0.8,0.0007937005259840996
408,0.504046618938446,0.5132339000701904,0.81,0.8,0.0007937005259840996
409,0.503960132598877,0.5131514072418213,0.81,0.8,0.0006299605249474364
410,0.503869891166687,0.513093888759613,0.81,0.8,0.0006299605249474364
411,0.5037956833839417,0.5130426287651062,0.81,0.8,0.0006299605249474364
412,0.5037187933921814,0.5129961967468262,0.81,0.8,0.0006299605249474364
413,0.5036390423774719,0.5129533410072327,0.81,0.8,0.0006299605249474364
414,0.5035567879676819,0.5129125118255615,0.81,0.8,0.0006299605249474364
415,0.503471851348877,0.5128740072250366,0.81,0.8,0.0006299605249474364
416,0.5033842921257019,0.5128384232521057,0.81,0.8,0.0006299605249474364
417,0.5032938718795776,0.5128064751625061,0.81,0.8,0.0006299605249474364
418,0.503200888633728,0.5127780437469482,0.81,0.8,0.0006299605249474364
419,0.5031052827835083,0.5127522945404053,0.81,0.8,0.0006299605249474364
420,0.5030068755149841,0.5127276182174683,0.81,0.8,0.0006299605249474364
421,0.5029060244560242,0.5127028822898865,0.81,0.8,0.0006299605249474364
422,0.5028025507926941,0.5126782059669495,0.81,0.8,0.0006299605249474364
423,0.5026962161064148,0.5126545429229736,0.81,0.8,0.0006299605249474364
424,0.502587616443634,0.5126330852508545,0.82,0.8,0.0006299605249474364
425,0.5024764537811279,0.5126139521598816,0.82,0.8,0.0006299605249474364
426,0.5023627281188965,0.5125963091850281,0.82,0.8,0.0006299605249474364
427,0.502246618270874,0.5125787854194641,0.82,0.8,0.0006299605249474364
428,0.5021281242370605,0.5125606060028076,0.82,0.8,0.0006299605249474364
429,0.502007246017456,0.5125422477722168,0.82,0.8,0.0006299605249474364
430,0.5018841028213501,0.5125249624252319,0.82,0.8,0.0006299605249474364
431,0.5017587542533875,0.5125096440315247,0.82,0.8,0.0006299605249474364
432,0.5016313791275024,0.5124964714050293,0.82,0.8,0.0006299605249474364
433,0.5015017986297607,0.5124843716621399,0.82,0.8,0.0006299605249474364
434,0.5013700723648071,0.5124725103378296,0.82,0.8,0.0006299605249474364
435,0.5012365579605103,0.5124605298042297,0.82,0.8,0.0006299605249474364
436,0.5011008977890015,0.5124497413635254,0.82,0.81,0.0006299605249474364
437,0.500963568687439,0.5124415755271912,0.82,0.81,0.0006299605249474364
438,0.5008243322372437,0.5124366283416748,0.82,0.81,0.0006299605249474364
439,0.5006833076477051,0.5124345421791077,0.82,0.81,0.0006299605249474364
440,0.5005404949188232,0.512434184551239,0.82,0.81,0.0006299605249474364
441,0.5003958940505981,0.5124360918998718,0.82,0.81,0.0006299605249474364
442,0.500249445438385,0.5124414563179016,0.82,0.81,0.0006299605249474364
443,0.5001010298728943,0.5124524831771851,0.82,0.81,0.0006299605249474364
444,0.499950647354126,0.5124704837799072,0.82,0.81,0.0006299605249474364
445,0.49979785084724426,0.5124961137771606,0.82,0.81,0.0006299605249474364
446,0.49964213371276855,0.5125304460525513,0.82,0.81,0.0006299605249474364
447,0.4994830787181854,0.5125763416290283,0.82,0.81,0.0006299605249474364
448,0.49931931495666504,0.5126388669013977,0.82,0.81,0.0006299605249474364
449,0.49914929270744324,0.5127262473106384,0.82,0.81,0.0006299605249474364
450,0.49896976351737976,0.5128507614135742,0.82,0.81,0.0006299605249474364
451,0.4987749755382538,0.5130343437194824,0.82,0.81,0.0006299605249474364
452,0.4985525608062744,0.5133243799209595,0.82,0.81,0.0006299605249474364
453,0.49827253818511963,0.5138471126556396,0.82,0.8,0.0006299605249474364
454,0.4978322982788086,0.5150580406188965,0.82,0.79,0.0006299605249474364
455,0.4966078996658325,0.5197400450706482,0.82,0.79,0.0006299605249474364
456,0.48774096369743347,0.5282295346260071,0.83,0.78,0.0006299605249474364
457,0.4796277582645416,0.5264753103256226,0.83,0.78,0.0006299605249474364
458,0.46641671657562256,0.5188950896263123,0.84,0.79,0.0006299605249474364
459,0.45121991634368896,0.5327159762382507,0.85,0.78,0.0006299605249474364
460,0.42157119512557983,0.5409247875213623,0.89,0.77,0.0006299605249474364
461,0.4237080514431,0.5302276611328125,0.89,0.8,0.0006299605249474364
462,0.42108818888664246,0.5272882580757141,0.9,0.78,0.0006299605249474364
463,0.4282644987106323,0.52195805311203,0.89,0.78,0.0006299605249474364
464,0.4349258542060852,0.5197042226791382,0.88,0.79,0.0006299605249474364
465,0.43826568126678467,0.5187762975692749,0.87,0.79,0.0006299605249474364
466,0.44020435214042664,0.5180483460426331,0.87,0.79,0.0006299605249474364
467,0.43885570764541626,0.5176223516464233,0.87,0.79,0.0006299605249474364
468,0.4358361065387726,0.5178156495094299,0.88,0.79,0.0006299605249474364
469,0.4325506091117859,0.519679069519043,0.88,0.78,0.0006299605249474364
470,0.4280949532985687,0.5209625959396362,0.89,0.77,0.0006299605249474364
471,0.42337706685066223,0.5205566883087158,0.89,0.79,0.0006299605249474364
472,0.4170507788658142,0.5240966081619263,0.9,0.79,0.0006299605249474364
473,0.41940930485725403,0.52049720287323,0.89,0.79,0.0006299605249474364
474,0.4127025306224823,0.4996774196624756,0.9,0.82,0.0006299605249474364
475,0.4119985103607178,0.49816006422042847,0.9,0.82,0.0006299605249474364
476,0.41481509804725647,0.5031933188438416,0.91,0.8,0.0006299605249474364
477,0.41613563895225525,0.5079116225242615,0.9,0.81,0.0006299605249474364
478,0.4180343747138977,0.5131171345710754,0.89,0.8,0.0006299605249474364
479,0.4182516038417816,0.5027978420257568,0.89,0.81,0.0006299605249474364
480,0.41241756081581116,0.4960990846157074,0.9,0.82,0.0006299605249474364
481,0.41063392162323,0.49289441108703613,0.91,0.83,0.0006299605249474364
482,0.4114215075969696,0.49398481845855713,0.9,0.83,0.0006299605249474364
483,0.4119265079498291,0.4989768862724304,0.9,0.82,0.0006299605249474364
484,0.4116586744785309,0.5099035501480103,0.9,0.8,0.0006299605249474364
485,0.40674343705177307,0.5219310522079468,0.91,0.8,0.0006299605249474364
486,0.4250515103340149,0.48690927028656006,0.88,0.82,0.0006299605249474364
487,0.4136374294757843,0.49531176686286926,0.9,0.81,0.0006299605249474364
488,0.43898946046829224,0.48555314540863037,0.86,0.83,0.0006299605249474364
489,0.41543373465538025,0.4975937306880951,0.9,0.81,0.0006299605249474364
490,0.4080184996128082,0.5331491231918335,0.91,0.79,0.0006299605249474364
491,0.4494205117225647,0.5216056704521179,0.84,0.8,0.0006299605249474364
492,0.41669532656669617,0.48668551445007324,0.89,0.82,0.0006299605249474364
493,0.413860559463501,0.499533474445343,0.9,0.8,0.0006299605249474364
494,0.43265384435653687,0.5002143383026123,0.88,0.8,0.0006299605249474364
495,0.4476844370365143,0.4963145852088928,0.86,0.81,0.0006299605249474364
496,0.4411013424396515,0.4980350732803345,0.86,0.8,0.0006299605249474364
497,0.4159785807132721,0.5176337957382202,0.9,0.8,0.0006299605249474364
498,0.423789381980896,0.5183456540107727,0.88,0.8,0.0006299605249474364
499,0.42395859956741333,0.5016686916351318,0.88,0.81,0.0006299605249474364
500,0.4156247079372406,0.4956637918949127,0.9,0.81,0.0006299605249474364
501,0.4184926152229309,0.49656951427459717,0.9,0.81,0.0006299605249474364
502,0.42979732155799866,0.4963231384754181,0.88,0.81,0.0006299605249474364
503,0.4296587407588959,0.48941195011138916,0.88,0.82,0.0006299605249474364
504,0.4179724454879761,0.49112075567245483,0.9,0.83,0.0006299605249474364
505,0.41198283433914185,0.5173473954200745,0.9,0.79,0.0006299605249474364
506,0.41093024611473083,0.517534613609314,0.9,0.79,0.0006299605249474364
507,0.4289811849594116,0.49753719568252563,0.88,0.82,0.0006299605249474364
508,0.4043298661708832,0.4902467727661133,0.91,0.83,0.0006299605249474364
509,0.4104345738887787,0.48828914761543274,0.9,0.83,0.0006299605249474364
510,0.41145312786102295,0.4888775944709778,0.9,0.83,0.0004999999999999997
511,0.41138023138046265,0.490697979927063,0.9,0.83,0.0004999999999999997
512,0.41045066714286804,0.4936216473579407,0.9,0.82,0.0004999999999999997
513,0.408646821975708,0.4995543658733368,0.91,0.81,0.0004999999999999997
514,0.4052715599536896,0.5032583475112915,0.91,0.81,0.0004999999999999997
515,0.4077879786491394,0.4978437125682831,0.91,0.81,0.0004999999999999997
516,0.4033993184566498,0.49257633090019226,0.91,0.82,0.0004999999999999997
517,0.4067782163619995,0.49355292320251465,0.91,0.82,0.0004999999999999997
518,0.40421605110168457,0.5085758566856384,0.92,0.79,0.0004999999999999997
519,0.40553736686706543,0.5142099857330322,0.91,0.8,0.0004999999999999997
520,0.4080301523208618,0.5018251538276672,0.91,0.81,0.0004999999999999997
521,0.4034583568572998,0.49105286598205566,0.91,0.83,0.0004999999999999997
522,0.40683192014694214,0.4926868677139282,0.9,0.83,0.0004999999999999997
523,0.40416619181632996,0.5055368542671204,0.91,0.8,0.0004999999999999997
524,0.4041934311389923,0.5122691988945007,0.91,0.8,0.0004999999999999997
525,0.4063929319381714,0.5033391714096069,0.91,0.8,0.0004999999999999997
526,0.4032945930957794,0.49265557527542114,0.91,0.82,0.0004999999999999997
527,0.40211427211761475,0.4907549321651459,0.91,0.83,0.0004999999999999997
528,0.40497055649757385,0.496865451335907,0.9,0.82,0.0004999999999999997
529,0.40176475048065186,0.5046617984771729,0.91,0.81,0.0004999999999999997
530,0.4045048952102661,0.5006687641143799,0.91,0.8,0.0004999999999999997
531,0.4032082259654999,0.49376267194747925,0.91,0.82,0.0004999999999999997
532,0.40096986293792725,0.4911727011203766,0.92,0.83,0.0004999999999999997
533,0.4051695168018341,0.4947196841239929,0.91,0.82,0.0004999999999999997
534,0.40083014965057373,0.5021183490753174,0.91,0.81,0.0004999999999999997
535,0.40281999111175537,0.5019077062606812,0.91,0.8,0.0004999999999999997
536,0.4024858772754669,0.49448448419570923,0.91,0.82,0.0004999999999999997
537,0.4006865620613098,0.4903613030910492,0.92,0.83,0.0004999999999999997
538,0.40158095955848694,0.49053072929382324,0.91,0.83,0.0004999999999999997
539,0.40116649866104126,0.4938077926635742,0.92,0.82,0.0004999999999999997
540,0.4003518223762512,0.4978884756565094,0.92,0.82,0.0004999999999999997
541,0.4010181427001953,0.4971310496330261,0.91,0.82,0.0004999999999999997
542,0.4007939398288727,0.49312371015548706,0.91,0.82,0.0004999999999999997
543,0.39973554015159607,0.4905121326446533,0.92,0.82,0.0004999999999999997
544,0.4001063108444214,0.49097317457199097,0.92,0.82,0.0004999999999999997
545,0.3995794355869293,0.4930882155895233,0.92,0.82,0.0004999999999999997
546,0.39935195446014404,0.4940156638622284,0.92,0.82,0.0004999999999999997
547,0.39971908926963806,0.49280014634132385,0.92,0.82,0.0004999999999999997
548,0.39912840723991394,0.49089285731315613,0.92,0.82,0.0004999999999999997
549,0.399198979139328,0.49107396602630615,0.92,0.82,0.0004999999999999997
550,0.39891567826271057,0.4924105703830719,0.92,0.82,0.0004999999999999997
551,0.3988434970378876,0.4926598072052002,0.92,0.82,0.0004999999999999997
552,0.39890870451927185,0.4915057122707367,0.92,0.82,0.0004999999999999997
553,0.3984881341457367,0.49014368653297424,0.92,0.82,0.0004999999999999997
554,0.39866000413894653,0.490590900182724,0.92,0.82,0.0004999999999999997
555,0.3983239233493805,0.49152955412864685,0.92,0.82,0.0004999999999999997
556,0.39831826090812683,0.4916743040084839,0.92,0.82,0.0004999999999999997
557,0.39830681681632996,0.4907996356487274,0.92,0.82,0.0004999999999999997
558,0.39809665083885193,0.48979318141937256,0.92,0.82,0.0004999999999999997
559,0.3981133997440338,0.4897814989089966,0.92,0.82,0.0004999999999999997
560,0.39802172780036926,0.4905621409416199,0.92,0.82,0.0004999999999999997
561,0.3978899121284485,0.4910346567630768,0.92,0.82,0.0004999999999999997
562,0.39789748191833496,0.4906522333621979,0.92,0.82,0.0004999999999999997
563,0.3977726995944977,0.4898175299167633,0.92,0.82,0.0004999999999999997
564,0.39767876267433167,0.4894235134124756,0.92,0.82,0.0004999999999999997
565,0.39767658710479736,0.4899098575115204,0.92,0.82,0.0004999999999999997
566,0.39753952622413635,0.4904235601425171,0.92,0.82,0.0004999999999999997
567,0.3975275754928589,0.49031689763069153,0.92,0.82,0.0004999999999999997
568,0.3974645733833313,0.4897056818008423,0.92,0.82,0.0004999999999999997
569,0.39737510681152344,0.4892887473106384,0.92,0.82,0.0004999999999999997
570,0.39736807346343994,0.48958438634872437,0.92,0.82,0.0004999999999999997
571,0.3972685933113098,0.4900057911872864,0.92,0.82,0.0004999999999999997
572,0.39723536372184753,0.4899767339229584,0.92,0.82,0.0004999999999999997
573,0.39718446135520935,0.4895138442516327,0.92,0.82,0.0004999999999999997
574,0.3971071243286133,0.4891212582588196,0.92,0.82,0.0004999999999999997
575,0.397081196308136,0.48924168944358826,0.92,0.82,0.0004999999999999997
576,0.3970145285129547,0.4896056354045868,0.92,0.82,0.0004999999999999997
577,0.39696580171585083,0.48972827196121216,0.92,0.82,0.0004999999999999997
578,0.3969312310218811,0.4894700348377228,0.92,0.82,0.0004999999999999997
579,0.396870493888855,0.48909804224967957,0.92,0.82,0.0004999999999999997
580,0.39682942628860474,0.48900142312049866,0.92,0.82,0.0004999999999999997
581,0.39678940176963806,0.4892343282699585,0.92,0.82,0.0004999999999999997
582,0.39673325419425964,0.4894673824310303,0.92,0.82,0.0004999999999999997
583,0.39669638872146606,0.48943382501602173,0.92,0.82,0.0004999999999999997
584,0.3966519832611084,0.48917078971862793,0.92,0.82,0.0004999999999999997
585,0.39660197496414185,0.48895084857940674,0.92,0.82,0.0004999999999999997
586,0.3965665400028229,0.4889982342720032,0.92,0.82,0.0004999999999999997
587,0.396521657705307,0.489210307598114,0.92,0.82,0.0004999999999999997
588,0.3964785039424896,0.48931771516799927,0.92,0.82,0.0004999999999999997
589,0.3964432179927826,0.4892045855522156,0.92,0.82,0.0004999999999999997
590,0.396399587392807,0.4889935255050659,0.92,0.82,0.0004999999999999997
591,0.3963603973388672,0.4889097511768341,0.92,0.82,0.0004999999999999997
592,0.3963242471218109,0.4890231788158417,0.92,0.82,0.0004999999999999997
593,0.3962821662425995,0.4891691505908966,0.92,0.82,0.0004999999999999997
594,0.3962458372116089,0.4891755282878876,0.92,0.82,0.0004999999999999997
595,0.3962089419364929,0.48903611302375793,0.92,0.82,0.0004999999999999997
596,0.396169513463974,0.4888956844806671,0.92,0.82,0.0004999999999999997
597,0.3961346447467804,0.4888937473297119,0.92,0.82,0.0004999999999999997
598,0.3960983157157898,0.4890064299106598,0.92,0.82,0.0004999999999999997
599,0.396061509847641,0.48909083008766174,0.92,0.82,0.0004999999999999997
600,0.39602771401405334,0.4890539050102234,0.92,0.82,0.0004999999999999997
601,0.3959923982620239,0.48893341422080994,0.92,0.82,0.0004999999999999997
602,0.39595717191696167,0.48884904384613037,0.92,0.82,0.0004999999999999997
603,0.3959242105484009,0.4888765215873718,0.92,0.82,0.0004999999999999997
604,0.3958898186683655,0.48896583914756775,0.92,0.82,0.0004999999999999997
605,0.3958560824394226,0.4890095889568329,0.92,0.82,0.0004999999999999997
606,0.39582371711730957,0.4889589548110962,0.92,0.82,0.0004999999999999997
607,0.39579033851623535,0.48886340856552124,0.92,0.82,0.0004999999999999997
608,0.3957578241825104,0.488815039396286,0.92,0.82,0.0004999999999999997
609,0.39572620391845703,0.48885050415992737,0.92,0.82,0.0004999999999999997
610,0.39569395780563354,0.4889143407344818,0.92,0.82,0.0004999999999999997
611,0.3956626057624817,0.488927960395813,0.92,0.82,0.00039685026299204955
612,0.39563167095184326,0.48888325691223145,0.92,0.82,0.00039685026299204955
613,0.3956068158149719,0.4888167977333069,0.92,0.82,0.00039685026299204955
614,0.3955823481082916,0.48877716064453125,0.92,0.82,0.00039685026299204955
615,0.39555832743644714,0.48878729343414307,0.92,0.82,0.00039685026299204955
616,0.39553412795066833,0.48882603645324707,0.92,0.82,0.00039685026299204955
617,0.39551013708114624,0.488851398229599,0.92,0.82,0.00039685026299204955
618,0.39548665285110474,0.48883652687072754,0.92,0.82,0.00039685026299204955
619,0.3954629600048065,0.4887889623641968,0.92,0.82,0.00039685026299204955
620,0.3954393267631531,0.48874130845069885,0.92,0.82,0.00039685026299204955
621,0.39541617035865784,0.4887237250804901,0.92,0.82,0.00039685026299204955
622,0.3953929841518402,0.48873940110206604,0.92,0.82,0.00039685026299204955
623,0.3953699469566345,0.48876437544822693,0.92,0.82,0.00039685026299204955
624,0.395346999168396,0.4887695014476776,0.92,0.82,0.00039685026299204955
625,0.3953242599964142,0.4887445569038391,0.92,0.82,0.00039685026299204955
626,0.39530158042907715,0.4887036979198456,0.92,0.82,0.00039685026299204955
627,0.3952789604663849,0.4886719584465027,0.92,0.82,0.00039685026299204955
628,0.3952566087245941,0.48866546154022217,0.92,0.82,0.00039685026299204955
629,0.39523422718048096,0.4886786937713623,0.92,0.82,0.00039685026299204955
630,0.39521193504333496,0.4886907935142517,0.92,0.82,0.00039685026299204955
631,0.3951897919178009,0.4886840581893921,0.92,0.82,0.00039685026299204955
632,0.3951677680015564,0.488657146692276,0.92,0.82,0.00039685026299204955
633,0.3951457142829895,0.4886242151260376,0.92,0.82,0.00039685026299204955
634,0.3951238989830017,0.4886033236980438,0.92,0.82,0.00039685026299204955
635,0.3951020836830139,0.4886011779308319,0.92,0.82,0.00039685026299204955
636,0.3950802981853485,0.48860928416252136,0.92,0.82,0.00039685026299204955
637,0.39505866169929504,0.48861178755760193,0.92,0.82,0.00039685026299204955
638,0.39503708481788635,0.48859867453575134,0.92,0.82,0.00039685026299204955
639,0.39501556754112244,0.4885731041431427,0.92,0.82,0.00039685026299204955
640,0.39499416947364807,0.48854759335517883,0.92,0.82,0.00039685026299204955
641,0.3949728012084961,0.4885336756706238,0.92,0.82,0.00039685026299204955
642,0.3949514627456665,0.48853257298469543,0.92,0.82,0.00039685026299204955
643,0.3949301540851593,0.48853564262390137,0.92,0.82,0.00039685026299204955
644,0.39490899443626404,0.4885319769382477,0.92,0.82,0.00039685026299204955
645,0.3948878347873688,0.48851677775382996,0.92,0.82,0.00039685026299204955
646,0.3948666751384735,0.4884946048259735,0.92,0.82,0.00039685026299204955
647,0.394845575094223,0.4884752035140991,0.92,0.82,0.00039685026299204955
648,0.3948246240615845,0.488465279340744,0.92,0.82,0.00039685026299204955
649,0.39480364322662354,0.48846369981765747,0.92,0.82,0.00039685026299204955
650,0.3947826325893402,0.4884631633758545,0.92,0.82,0.00039685026299204955
651,0.3947618007659912,0.48845621943473816,0.92,0.82,0.00039685026299204955
652,0.39474090933799744,0.48844119906425476,0.92,0.82,0.00039685026299204955
653,0.39472004771232605,0.48842278122901917,0.92,0.82,0.00039685026299204955
654,0.39469918608665466,0.4884077310562134,0.92,0.82,0.00039685026299204955
655,0.3946784734725952,0.4883999526500702,0.92,0.82,0.00039685026299204955
656,0.39465758204460144,0.4883974492549896,0.92,0.82,0.00039685026299204955
657,0.3946368396282196,0.48839446902275085,0.92,0.82,0.00039685026299204955
658,0.394616037607193,0.4883863925933838,0.92,0.82,0.00039685026299204955
659,0.3945951461791992,0.4883727729320526,0.92,0.82,0.00039685026299204955
660,0.39457443356513977,0.488357812166214,0.92,0.82,0.00039685026299204955
661,0.3945537209510803,0.48834601044654846,0.92,0.82,0.00039685026299204955
662,0.3945330083370209,0.48833972215652466,0.92,0.82,0.00039685026299204955
663,0.3945121765136719,0.4883367419242859,0.92,0.82,0.00039685026299204955
664,0.39449143409729004,0.48833271861076355,0.92,0.82,0.00039685026299204955
665,0.3944706320762634,0.48832494020462036,0.92,0.82,0.00039685026299204955
666,0.3944498896598816,0.4883134961128235,0.92,0.82,0.00039685026299204955
667,0.3944290280342102,0.48830169439315796,0.92,0.82,0.00039685026299204955
668,0.39440831542015076,0.4882928133010864,0.92,0.82,0.00039685026299204955
669,0.39438724517822266,0.4882880747318268,0.92,0.82,0.00039685026299204955
670,0.39436641335487366,0.4882853627204895,0.92,0.82,0.00039685026299204955
671,0.3943454623222351,0.48828160762786865,0.92,0.82,0.00039685026299204955
672,0.39432448148727417,0.48827502131462097,0.92,0.82,0.00039685026299204955
673,0.394303560256958,0.48826614022254944,0.92,0.82,0.00039685026299204955
674,0.3942824602127075,0.48825740814208984,0.92,0.82,0.00039685026299204955
675,0.3942613899707794,0.4882511496543884,0.92,0.82,0.00039685026299204955
676,0.39424023032188416,0.48824796080589294,0.92,0.82,0.00039685026299204955
677,0.3942190408706665,0.4882460832595825,0.92,0.82,0.00039685026299204955
678,0.3941977620124817,0.4882432818412781,0.92,0.82,0.00039685026299204955
679,0.3941764533519745,0.4882386028766632,0.92,0.82,0.00039685026299204955
680,0.39415499567985535,0.4882323741912842,0.92,0.82,0.00039685026299204955
681,0.394133597612381,0.4882267117500305,0.92,0.82,0.00039685026299204955
682,0.39411213994026184,0.4882230758666992,0.92,0.82,0.00039685026299204955
683,0.39409053325653076,0.4882217347621918,0.92,0.82,0.00039685026299204955
684,0.39406880736351013,0.48822131752967834,0.92,0.82,0.00039685026299204955
685,0.3940470814704895,0.48822030425071716,0.92,0.82,0.00039685026299204955
686,0.39402520656585693,0.48821821808815,0.92,0.82,0.00039685026299204955
687,0.3940032720565796,0.48821526765823364,0.92,0.82,0.00039685026299204955
688,0.3939812183380127,0.4882129728794098,0.92,0.82,0.00039685026299204955
689,0.39395901560783386,0.48821234703063965,0.92,0.82,0.00039685026299204955
690,0.39393681287765503,0.48821356892585754,0.92,0.82,0.00039685026299204955
691,0.39391449093818665,0.48821571469306946,0.92,0.82,0.00039685026299204955
692,0.39389193058013916,0.4882175326347351,0.92,0.82,0.00039685026299204955
693,0.3938693106174469,0.48821887373924255,0.92,0.82,0.00039685026299204955
694,0.3938465416431427,0.4882197082042694,0.92,0.82,0.00039685026299204955
695,0.3938237726688385,0.48822131752967834,0.92,0.82,0.00039685026299204955
696,0.3938007056713104,0.4882245361804962,0.92,0.82,0.00039685026299204955
697,0.39377760887145996,0.4882291853427887,0.92,0.82,0.00039685026299204955
698,0.39375436305999756,0.4882347583770752,0.92,0.82,0.00039685026299204955
699,0.39373087882995605,0.48824015259742737,0.92,0.82,0.00039685026299204955
700,0.3937072455883026,0.48824557662010193,0.92,0.82,0.00039685026299204955
701,0.3936835527420044,0.4882509112358093,0.92,0.82,0.00039685026299204955
702,0.3936596214771271,0.48825690150260925,0.92,0.82,0.00039685026299204955
703,0.3936355710029602,0.4882644712924957,0.92,0.82,0.00039685026299204955
704,0.393611341714859,0.4882732629776001,0.92,0.82,0.00039685026299204955
705,0.3935868740081787,0.4882827699184418,0.92,0.82,0.00039685026299204955
706,0.3935621976852417,0.4882928431034088,0.92,0.82,0.00039685026299204955
707,0.3935375213623047,0.48830288648605347,0.92,0.82,0.00039685026299204955
708,0.39351242780685425,0.48831337690353394,0.92,0.82,0.00039685026299204955
709,0.39348721504211426,0.4883245825767517,0.92,0.82,0.00039685026299204955
710,0.39346182346343994,0.48833712935447693,0.92,0.82,0.00039685026299204955
711,0.3934361934661865,0.48835089802742004,0.92,0.82,0.00039685026299204955
712,0.393410325050354,0.48836570978164673,0.92,0.82,0.00031498026247371797
713,0.3933842182159424,0.48837774991989136,0.92,0.82,0.00031498026247371797
714,0.393363356590271,0.4883902072906494,0.92,0.82,0.00031498026247371797
715,0.39334237575531006,0.48840275406837463,0.92,0.82,0.00031498026247371797
716,0.39332112669944763,0.48841583728790283,0.92,0.82,0.00031498026247371797
717,0.3932996988296509,0.4884297549724579,0.92,0.82,0.00031498026247371797
718,0.3932781517505646,0.48844456672668457,0.92,0.82,0.00031498026247371797
719,0.39325636625289917,0.48846039175987244,0.92,0.82,0.00031498026247371797
720,0.3932344913482666,0.48847663402557373,0.92,0.82,0.00031498026247371797
721,0.3932124674320221,0.48849332332611084,0.92,0.82,0.00031498026247371797
722,0.3931901454925537,0.48851048946380615,0.92,0.82,0.00031498026247371797
723,0.393167644739151,0.48852798342704773,0.92,0.82,0.00031498026247371797
724,0.39314502477645874,0.48854610323905945,0.92,0.82,0.00031498026247371797
725,0.393122136592865,0.4885651767253876,0.92,0.82,0.00031498026247371797
726,0.3930991291999817,0.48858508467674255,0.92,0.82,0.00031498026247371797
727,0.3930759131908417,0.488605797290802,0.92,0.82,0.00031498026247371797
728,0.39305245876312256,0.488627165555954,0.92,0.82,0.00031498026247371797
729,0.3930288255214691,0.4886491298675537,0.92,0.82,0.00031498026247371797
730,0.3930049538612366,0.4886714518070221,0.92,0.82,0.00031498026247371797
731,0.39298081398010254,0.48869433999061584,0.92,0.82,0.00031498026247371797
732,0.3929564952850342,0.48871806263923645,0.92,0.82,0.00031498026247371797
733,0.3929320275783539,0.4887424409389496,0.92,0.82,0.00031498026247371797
734,0.3929073214530945,0.4887675940990448,0.92,0.82,0.00031498026247371797
735,0.3928823173046112,0.4887937605381012,0.92,0.82,0.00031498026247371797
736,0.392857164144516,0.4888204336166382,0.92,0.82,0.00031498026247371797
737,0.3928316533565521,0.48884764313697815,0.92,0.82,0.00031498026247371797
738,0.39280614256858826,0.48887553811073303,0.92,0.82,0.00031498026247371797
739,0.3927801847457886,0.4889039695262909,0.92,0.82,0.00031498026247371797
740,0.39275410771369934,0.48893311619758606,0.92,0.82,0.00031498026247371797
741,0.3927276134490967,0.4889630973339081,0.92,0.82,0.00031498026247371797
742,0.39270102977752686,0.4889937937259674,0.92,0.82,0.00031498026247371797
743,0.39267417788505554,0.4890252649784088,0.92,0.82,0.00031498026247371797
744,0.3926469683647156,0.48905739188194275,0.92,0.82,0.00031498026247371797
745,0.3926195800304413,0.48909011483192444,0.92,0.82,0.00031498026247371797
746,0.39259201288223267,0.4891235828399658,0.92,0.82,0.00031498026247371797
747,0.392564058303833,0.48915764689445496,0.92,0.82,0.00031498026247371797
748,0.39253589510917664,0.48919254541397095,0.92,0.81,0.00031498026247371797
749,0.392507404088974,0.4892279803752899,0.92,0.81,0.00031498026247371797
750,0.3924785852432251,0.48926424980163574,0.92,0.81,0.00031498026247371797
751,0.3924495279788971,0.4893011450767517,0.92,0.81,0.00031498026247371797
752,0.39242032170295715,0.4893389642238617,0.92,0.81,0.00031498026247371797
753,0.3923906981945038,0.4893772602081299,0.92,0.81,0.00031498026247371797
754,0.3923608064651489,0.489416241645813,0.92,0.81,0.00031498026247371797
755,0.3923306167125702,0.48945578932762146,0.92,0.81,0.00031498026247371797
756,0.39230018854141235,0.4894960820674896,0.92,0.81,0.00031498026247371797
757,0.3922693729400635,0.4895370900630951,0.92,0.81,0.00031498026247371797
758,0.3922382593154907,0.4895786643028259,0.92,0.81,0.00031498026247371797
759,0.3922068476676941,0.48962104320526123,0.92,0.81,0.00031498026247371797
760,0.3921751081943512,0.48966383934020996,0.92,0.81,0.00031498026247371797
761,0.3921430706977844,0.48970741033554077,0.92,0.81,0.00031498026247371797
762,0.39211079478263855,0.48975154757499695,0.92,0.81,0.00031498026247371797
763,0.3920780420303345,0.4897962212562561,0.92,0.81,0.00031498026247371797
764,0.39204511046409607,0.4898415803909302,0.92,0.81,0.00031498026247371797
765,0.39201173186302185,0.48988738656044006,0.92,0.81,0.00031498026247371797
766,0.39197808504104614,0.48993387818336487,0.92,0.81,0.00031498026247371797
767,0.3919440507888794,0.48998087644577026,0.92,0.81,0.00031498026247371797
768,0.3919096887111664,0.4900284707546234,0.92,0.8,0.00031498026247371797
769,0.3918749690055847,0.49007657170295715,0.92,0.8,0.00031498026247371797
770,0.3918398320674896,0.49012523889541626,0.92,0.8,0.00031498026247371797
771,0.39180442690849304,0.49017438292503357,0.92,0.8,0.00031498026247371797
772,0.39176857471466064,0.49022403359413147,0.92,0.8,0.00031498026247371797
773,0.39173245429992676,0.49027425050735474,0.92,0.8,0.00031498026247371797
774,0.39169594645500183,0.49032488465309143,0.92,0.8,0.00031498026247371797
775,0.3916589319705963,0.4903760552406311,0.92,0.8,0.00031498026247371797
776,0.3916216790676117,0.4904278814792633,0.92,0.8,0.00031498026247371797
777,0.39158394932746887,0.49048030376434326,0.92,0.8,0.00031498026247371797
778,0.391545832157135,0.4905332326889038,0.92,0.8,0.00031498026247371797
779,0.39150726795196533,0.4905868172645569,0.92,0.8,0.00031498026247371797
780,0.39146843552589417,0.49064093828201294,0.92,0.8,0.00031498026247371797
781,0.39142903685569763,0.4906957745552063,0.92,0.8,0.00031498026247371797
782,0.39138931035995483,0.490751177072525,0.92,0.8,0.00031498026247371797
783,0.39134910702705383,0.4908073842525482,0.92,0.8,0.00031498026247371797
784,0.3913085162639618,0.4908645749092102,0.92,0.8,0.00031498026247371797
785,0.391267329454422,0.4909226596355438,0.92,0.8,0.00031498026247371797
786,0.39122578501701355,0.49098193645477295,0.92,0.8,0.00031498026247371797
787,0.3911837637424469,0.4910425543785095,0.92,0.8,0.00031498026247371797
788,0.3911411762237549,0.49110478162765503,0.92,0.8,0.00031498026247371797
789,0.39109811186790466,0.491168737411499,0.92,0.8,0.00031498026247371797
790,0.39105457067489624,0.49123480916023254,0.92,0.8,0.00031498026247371797
791,0.39101046323776245,0.49130362272262573,0.92,0.8,0.00031498026247371797
792,0.3909658193588257,0.4913758337497711,0.92,0.8,0.00031498026247371797
793,0.39092060923576355,0.4914521276950836,0.92,0.8,0.00031498026247371797
794,0.3908747136592865,0.4915338158607483,0.92,0.8,0.00031498026247371797
795,0.39082810282707214,0.4916222393512726,0.92,0.8,0.00031498026247371797
796,0.39078086614608765,0.4917197823524475,0.92,0.8,0.00031498026247371797
797,0.3907327950000763,0.4918293058872223,0.92,0.8,0.00031498026247371797
798,0.3906838595867157,0.49195557832717896,0.92,0.8,0.00031498026247371797
799,0.3906339704990387,0.4921056032180786,0.92,0.8,0.00031498026247371797
800,0.39058274030685425,0.4922911822795868,0.92,0.8,0.00031498026247371797
801,0.3905298709869385,0.4925329089164734,0.92,0.8,0.00031498026247371797
802,0.39047423005104065,0.4928700625896454,0.92,0.8,0.00031498026247371797
803,0.39041319489479065,0.49338942766189575,0.92,0.8,0.00031498026247371797
804,0.39033645391464233,0.4943303167819977,0.92,0.8,0.00031498026247371797
805,0.3901764750480652,0.49701109528541565,0.93,0.8,0.00031498026247371797
806,0.3884221315383911,0.5308188796043396,0.93,0.77,0.00031498026247371797
807,0.40846458077430725,0.49368250370025635,0.91,0.8,0.00031498026247371797
808,0.3893698751926422,0.481209933757782,0.93,0.84,0.00031498026247371797
809,0.39471134543418884,0.4863569140434265,0.92,0.82,0.00031498026247371797
810,0.3904908299446106,0.49355360865592957,0.92,0.8,0.00031498026247371797
811,0.38356781005859375,0.5361409783363342,0.94,0.77,0.00031498026247371797
812,0.41805630922317505,0.5120007395744324,0.9,0.79,0.00031498026247371797
813,0.3907722532749176,0.4816693067550659,0.92,0.83,0.00031498026247371797
814,0.4031127095222473,0.4909329116344452,0.9,0.82,0.00031498026247371797
815,0.420981228351593,0.4928160011768341,0.89,0.82,0.00031498026247371797
816,0.43658000230789185,0.49210864305496216,0.86,0.82,0.00031498026247371797
817,0.44316422939300537,0.49232256412506104,0.86,0.82,0.00031498026247371797
818,0.4300907552242279,0.4868391454219818,0.88,0.83,0.00031498026247371797
819,0.41628360748291016,0.49282872676849365,0.89,0.81,0.00031498026247371797
820,0.40458789467811584,0.4774664044380188,0.91,0.84,0.00031498026247371797
821,0.3930564224720001,0.5148453712463379,0.91,0.79,0.00031498026247371797
822,0.42247074842453003,0.48098814487457275,0.87,0.82,0.00031498026247371797
823,0.3824250102043152,0.4769175052642822,0.93,0.84,0.00031498026247371797
824,0.4003625512123108,0.4767671525478363,0.91,0.84,0.00031498026247371797
825,0.40208500623703003,0.48005616664886475,0.91,0.83,0.00031498026247371797
826,0.40066513419151306,0.4847981631755829,0.91,0.82,0.00031498026247371797
827,0.40057694911956787,0.48892366886138916,0.92,0.81,0.00031498026247371797
828,0.40221133828163147,0.48226433992385864,0.92,0.82,0.00031498026247371797
829,0.40500685572624207,0.4815276861190796,0.92,0.82,0.00031498026247371797
830,0.4056345820426941,0.47855088114738464,0.92,0.82,0.00031498026247371797
831,0.4031980037689209,0.4732217490673065,0.92,0.83,0.00031498026247371797
832,0.40121060609817505,0.4685684144496918,0.92,0.85,0.00031498026247371797
833,0.400358647108078,0.4663482904434204,0.91,0.85,0.00031498026247371797
834,0.40019869804382324,0.46579447388648987,0.91,0.85,0.00031498026247371797
835,0.4001854658126831,0.4661959409713745,0.91,0.85,0.00031498026247371797
836,0.3999839127063751,0.4773350656032562,0.91,0.84,0.00031498026247371797
837,0.3996104896068573,0.4796486794948578,0.91,0.82,0.00031498026247371797
838,0.3992294669151306,0.48279255628585815,0.91,0.82,0.00031498026247371797
839,0.404866099357605,0.4783470034599304,0.91,0.84,0.00031498026247371797
840,0.4070991277694702,0.48896515369415283,0.9,0.82,0.00031498026247371797
841,0.4404566287994385,0.48964592814445496,0.87,0.82,0.00031498026247371797
842,0.44431445002555847,0.4836832284927368,0.86,0.83,0.00031498026247371797
843,0.4184753894805908,0.49812620878219604,0.9,0.8,0.00031498026247371797
844,0.4179922342300415,0.5182486176490784,0.9,0.79,0.00031498026247371797
845,0.4361298084259033,0.5220416188240051,0.86,0.78,0.00031498026247371797
846,0.43678274750709534,0.5035527944564819,0.85,0.8,0.00031498026247371797
847,0.4209864139556885,0.4975837767124176,0.89,0.82,0.00031498026247371797
848,0.42582130432128906,0.5071460604667664,0.88,0.8,0.00031498026247371797
849,0.42675238847732544,0.5043656229972839,0.87,0.8,0.00031498026247371797
850,0.4358959496021271,0.505911648273468,0.87,0.81,0.00031498026247371797
851,0.43561649322509766,0.5032579898834229,0.87,0.81,0.00031498026247371797
852,0.4446265399456024,0.5030500292778015,0.86,0.81,0.00031498026247371797
853,0.4573846161365509,0.5068742632865906,0.85,0.81,0.00031498026247371797
854,0.44743597507476807,0.5089554786682129,0.86,0.81,0.00031498026247371797
855,0.4482642412185669,0.5092095732688904,0.86,0.81,0.00031498026247371797
856,0.44479647278785706,0.5097606182098389,0.87,0.8,0.00031498026247371797
857,0.4413662850856781,0.5045308470726013,0.87,0.81,0.00031498026247371797
858,0.4382043480873108,0.49589869379997253,0.87,0.81,0.00031498026247371797
859,0.4315936267375946,0.4998839199542999,0.88,0.81,0.00031498026247371797
860,0.42648059129714966,0.507300615310669,0.88,0.8,0.00031498026247371797
861,0.4230494797229767,0.5010299682617188,0.89,0.81,0.00031498026247371797
862,0.4180883467197418,0.495564341545105,0.9,0.82,0.00031498026247371797
863,0.42054662108421326,0.48966553807258606,0.89,0.82,0.00031498026247371797
864,0.4162789285182953,0.49508121609687805,0.9,0.82,0.00031498026247371797
865,0.42287611961364746,0.4943540096282959,0.89,0.82,0.00031498026247371797
866,0.42297857999801636,0.49332454800605774,0.89,0.82,0.00031498026247371797
867,0.42027005553245544,0.4829566478729248,0.89,0.83,0.00031498026247371797
868,0.41389068961143494,0.4823499917984009,0.9,0.83,0.00031498026247371797
869,0.41342711448669434,0.4822523593902588,0.9,0.83,0.00031498026247371797
870,0.4121617376804352,0.48232579231262207,0.9,0.83,0.00031498026247371797
871,0.4116852879524231,0.4824613332748413,0.9,0.83,0.00031498026247371797
872,0.41161540150642395,0.48253172636032104,0.9,0.83,0.00031498026247371797
873,0.4113176465034485,0.4825797975063324,0.9,0.83,0.00031498026247371797
874,0.41075408458709717,0.48278117179870605,0.9,0.83,0.00031498026247371797
875,0.4101620018482208,0.48330220580101013,0.91,0.83,0.00031498026247371797
876,0.4099256992340088,0.48410141468048096,0.91,0.83,0.00031498026247371797
877,0.4100012481212616,0.484964519739151,0.91,0.82,0.00031498026247371797
878,0.4098086655139923,0.48586010932922363,0.91,0.82,0.00031498026247371797
879,0.4095013737678528,0.48689642548561096,0.91,0.82,0.00031498026247371797
880,0.40939632058143616,0.488084614276886,0.91,0.82,0.00031498026247371797
881,0.40945038199424744,0.4892798662185669,0.91,0.82,0.00031498026247371797
882,0.4095088541507721,0.49028393626213074,0.91,0.81,0.00031498026247371797
883,0.40946564078330994,0.4910137951374054,0.91,0.81,0.00031498026247371797
884,0.4093381464481354,0.49153563380241394,0.91,0.81,0.00031498026247371797
885,0.4092431366443634,0.49194782972335815,0.91,0.82,0.00031498026247371797
886,0.40924564003944397,0.49228599667549133,0.91,0.82,0.00031498026247371797
887,0.40925532579421997,0.4925372302532196,0.91,0.82,0.00031498026247371797
888,0.4091496169567108,0.49269604682922363,0.91,0.82,0.00031498026247371797
889,0.40896275639533997,0.4927642047405243,0.91,0.81,0.00031498026247371797
890,0.40880846977233887,0.49272793531417847,0.91,0.81,0.00031498026247371797
891,0.40868958830833435,0.49258148670196533,0.91,0.81,0.00031498026247371797
892,0.40852296352386475,0.4923689663410187,0.91,0.81,0.00031498026247371797
893,0.4082893431186676,0.49218112230300903,0.91,0.81,0.00031498026247371797
894,0.40805062651634216,0.49211379885673523,0.91,0.81,0.00031498026247371797
895,0.4078306555747986,0.4922446310520172,0.91,0.81,0.00031498026247371797
896,0.4075302481651306,0.4926665425300598,0.91,0.81,0.00031498026247371797
897,0.40694180130958557,0.49360892176628113,0.91,0.81,0.00031498026247371797
898,0.40551498532295227,0.4959205687046051,0.91,0.81,0.00031498026247371797
899,0.40145012736320496,0.5005025267601013,0.92,0.8,0.00031498026247371797
900,0.39739811420440674,0.5052565336227417,0.92,0.81,0.00031498026247371797
901,0.3923474848270416,0.5107105374336243,0.92,0.8,0.00031498026247371797
902,0.39543774724006653,0.5066707730293274,0.92,0.81,0.00031498026247371797
903,0.3923121988773346,0.5007375478744507,0.93,0.81,0.00031498026247371797
904,0.3897007703781128,0.4967239797115326,0.92,0.81,0.00031498026247371797
905,0.38959595561027527,0.49370428919792175,0.93,0.82,0.00031498026247371797
906,0.3897189199924469,0.49149471521377563,0.93,0.81,0.00031498026247371797
907,0.3897761106491089,0.4899619221687317,0.93,0.81,0.00031498026247371797
908,0.3896002471446991,0.4890376031398773,0.93,0.8,0.00031498026247371797
909,0.3895597457885742,0.4884716868400574,0.93,0.82,0.00031498026247371797
910,0.38951873779296875,0.4880198538303375,0.93,0.82,0.00031498026247371797
911,0.3892631530761719,0.48767268657684326,0.93,0.82,0.00031498026247371797
912,0.38904625177383423,0.48749130964279175,0.93,0.82,0.00031498026247371797
913,0.38881367444992065,0.4874635636806488,0.93,0.82,0.00031498026247371797
914,0.38843780755996704,0.48752495646476746,0.93,0.82,0.00031498026247371797
915,0.3881033658981323,0.4875994920730591,0.93,0.82,0.00031498026247371797
916,0.3878213167190552,0.48766258358955383,0.93,0.8,0.00031498026247371797
917,0.38749584555625916,0.4877481460571289,0.93,0.81,0.00031498026247371797
918,0.3871920108795166,0.48787567019462585,0.93,0.82,0.00031498026247371797
919,0.3869572877883911,0.4880223572254181,0.93,0.82,0.00031498026247371797
920,0.38672491908073425,0.4881656765937805,0.93,0.82,0.00031498026247371797
921,0.38647156953811646,0.4883054792881012,0.93,0.82,0.00031498026247371797
922,0.386231392621994,0.48844337463378906,0.93,0.82,0.00031498026247371797
923,0.385987788438797,0.4885771572589874,0.93,0.83,0.00031498026247371797
924,0.38568314909935,0.48870813846588135,0.93,0.83,0.0002499999999999997
925,0.3852623403072357,0.48881396651268005,0.93,0.83,0.0002499999999999997
926,0.38478922843933105,0.4889078438282013,0.93,0.83,0.0002499999999999997
927,0.38413336873054504,0.48895031213760376,0.93,0.83,0.0002499999999999997
928,0.38337481021881104,0.48891451954841614,0.94,0.83,0.0002499999999999997
929,0.3828737735748291,0.4888950288295746,0.94,0.83,0.0002499999999999997
930,0.382729709148407,0.4890778660774231,0.94,0.83,0.0002499999999999997
931,0.38250744342803955,0.4894559979438782,0.94,0.83,0.0002499999999999997
932,0.3819659352302551,0.4898044466972351,0.94,0.83,0.0002499999999999997
933,0.38122662901878357,0.4899834394454956,0.93,0.83,0.0002499999999999997
934,0.38051867485046387,0.4900154173374176,0.94,0.83,0.0002499999999999997
935,0.3799751400947571,0.48998937010765076,0.94,0.83,0.0002499999999999997
936,0.37953460216522217,0.49003392457962036,0.94,0.83,0.0002499999999999997
937,0.37908434867858887,0.49020805954933167,0.95,0.83,0.0002499999999999997
938,0.3786553144454956,0.49041861295700073,0.95,0.83,0.0002499999999999997
939,0.3782965838909149,0.49053093791007996,0.95,0.83,0.0002499999999999997
940,0.3779281675815582,0.49052882194519043,0.95,0.83,0.0002499999999999997
941,0.3775908350944519,0.49048560857772827,0.94,0.83,0.0002499999999999997
942,0.3773902654647827,0.4904434084892273,0.94,0.83,0.0002499999999999997
943,0.3772801458835602,0.4903920292854309,0.94,0.83,0.0002499999999999997
944,0.3771496117115021,0.49032825231552124,0.94,0.82,0.0002499999999999997
945,0.3769531548023224,0.49028876423835754,0.94,0.82,0.0002499999999999997
946,0.37672585248947144,0.4903143346309662,0.94,0.82,0.0002499999999999997
947,0.37653815746307373,0.4903983175754547,0.94,0.83,0.0002499999999999997
948,0.37641918659210205,0.4904813766479492,0.94,0.83,0.0002499999999999997
949,0.3762904703617096,0.4905146062374115,0.95,0.83,0.0002499999999999997
950,0.37607258558273315,0.4905098080635071,0.95,0.83,0.0002499999999999997
951,0.3758277893066406,0.4905053675174713,0.95,0.83,0.0002499999999999997
952,0.3756473958492279,0.4905147850513458,0.94,0.83,0.0002499999999999997
953,0.37552180886268616,0.4905274510383606,0.94,0.83,0.0002499999999999997
954,0.37538886070251465,0.49053817987442017,0.94,0.83,0.0002499999999999997
955,0.3752192556858063,0.4905548393726349,0.95,0.83,0.0002499999999999997
956,0.375039666891098,0.49058297276496887,0.95,0.83,0.0002499999999999997
957,0.3748946487903595,0.49060681462287903,0.95,0.83,0.0002499999999999997
958,0.3747921884059906,0.49059608578681946,0.95,0.83,0.0002499999999999997
959,0.3746930956840515,0.4905334711074829,0.95,0.83,0.0002499999999999997
960,0.3745664954185486,0.4904288351535797,0.95,0.83,0.0002499999999999997
961,0.37442898750305176,0.4903070330619812,0.95,0.83,0.0002499999999999997
962,0.3743104040622711,0.49018654227256775,0.95,0.83,0.0002499999999999997
963,0.37421196699142456,0.4900760352611542,0.95,0.83,0.0002499999999999997
964,0.37411507964134216,0.48998206853866577,0.95,0.83,0.0002499999999999997
965,0.3740069270133972,0.48991283774375916,0.95,0.83,0.0002499999999999997
966,0.37389159202575684,0.4898742437362671,0.95,0.83,0.0002499999999999997
967,0.3737809360027313,0.48986244201660156,0.95,0.83,0.0002499999999999997
968,0.37367966771125793,0.48986199498176575,0.95,0.83,0.0002499999999999997
969,0.37358132004737854,0.489856481552124,0.95,0.83,0.0002499999999999997
970,0.37347885966300964,0.4898369610309601,0.95,0.83,0.0002499999999999997
971,0.37337344884872437,0.4898049533367157,0.95,0.83,0.0002499999999999997
972,0.373271644115448,0.48976650834083557,0.95,0.83,0.0002499999999999997
973,0.3731757402420044,0.489727258682251,0.95,0.83,0.0002499999999999997
974,0.3730817437171936,0.48969054222106934,0.95,0.83,0.0002499999999999997
975,0.3729861080646515,0.48965999484062195,0.95,0.83,0.0002499999999999997
976,0.372889906167984,0.4896380603313446,0.95,0.83,0.0002499999999999997
977,0.3727966248989105,0.48962581157684326,0.95,0.83,0.0002499999999999997
978,0.3727077841758728,0.48962125182151794,0.95,0.83,0.0002499999999999997
979,0.3726217746734619,0.4896201193332672,0.95,0.83,0.0002499999999999997
980,0.3725355267524719,0.48961883783340454,0.95,0.82,0.0002499999999999997
981,0.3724483251571655,0.48961514234542847,0.95,0.82,0.0002499999999999997
982,0.37236225605010986,0.489609032869339,0.95,0.82,0.0002499999999999997
983,0.37227919697761536,0.4896012246608734,0.95,0.82,0.0002499999999999997
984,0.37219876050949097,0.4895925223827362,0.95,0.82,0.0002499999999999997
985,0.37211930751800537,0.48958373069763184,0.95,0.82,0.0002499999999999997
986,0.37203967571258545,0.48957398533821106,0.95,0.82,0.0002499999999999997
987,0.3719604015350342,0.48956161737442017,0.95,0.82,0.0002499999999999997
988,0.3718824088573456,0.4895442724227905,0.95,0.82,0.0002499999999999997
989,0.3718061149120331,0.4895196855068207,0.95,0.82,0.0002499999999999997
990,0.3717308044433594,0.48948779702186584,0.95,0.82,0.0002499999999999997
991,0.3716558814048767,0.48945048451423645,0.95,0.82,0.0002499999999999997
992,0.37158146500587463,0.48941174149513245,0.95,0.82,0.0002499999999999997
993,0.3715082108974457,0.4893748164176941,0.95,0.82,0.0002499999999999997
994,0.37143614888191223,0.489342600107193,0.95,0.82,0.0002499999999999997
995,0.371364951133728,0.48931607604026794,0.95,0.82,0.0002499999999999997
996,0.37129417061805725,0.4892944097518921,0.95,0.82,0.0002499999999999997
997,0.37122389674186707,0.4892755150794983,0.95,0.82,0.0002499999999999997
998,0.37115439772605896,0.489256352186203,0.95,0.82,0.0002499999999999997
999,0.3710859417915344,0.48923423886299133,0.95,0.82,0.0002499999999999997
1000,0.37101852893829346,0.4892074167728424,0.95,0.82,0.0002499999999999997
1001,0.370951771736145,0.48917537927627563,0.95,0.82,0.0002499999999999997
1002,0.37088555097579956,0.4891393184661865,0.95,0.82,0.0002499999999999997
1003,0.37081995606422424,0.4891011416912079,0.95,0.82,0.0002499999999999997
1004,0.3707551658153534,0.4890628159046173,0.95,0.82,0.0002499999999999997
1005,0.3706912100315094,0.48902562260627747,0.95,0.82,0.0002499999999999997
1006,0.3706279695034027,0.48899024724960327,0.95,0.82,0.0002499999999999997
1007,0.3705652356147766,0.4889567196369171,0.95,0.82,0.0002499999999999997
1008,0.37050315737724304,0.4889238774776459,0.95,0.82,0.0002499999999999997
1009,0.3704417049884796,0.4888908267021179,0.95,0.82,0.0002499999999999997
1010,0.37038105726242065,0.4888566732406616,0.95,0.82,0.0002499999999999997
1011,0.37032100558280945,0.48882079124450684,0.95,0.82,0.0002499999999999997
1012,0.3702615797519684,0.4887833893299103,0.95,0.82,0.0002499999999999997
1013,0.3702026605606079,0.48874518275260925,0.95,0.82,0.0002499999999999997
1014,0.37014439702033997,0.4887070953845978,0.95,0.82,0.0002499999999999997
1015,0.37008678913116455,0.4886695146560669,0.95,0.82,0.0002499999999999997
1016,0.3700297474861145,0.4886326491832733,0.95,0.82,0.0002499999999999997
1017,0.3699733018875122,0.488596111536026,0.95,0.82,0.0002499999999999997
1018,0.3699174225330353,0.488559365272522,0.95,0.82,0.0002499999999999997
1019,0.36986202001571655,0.488521546125412,0.95,0.82,0.0002499999999999997
1020,0.36980727314949036,0.48848211765289307,0.95,0.82,0.0002499999999999997
1021,0.3697531521320343,0.4884406626224518,0.95,0.82,0.0002499999999999997
1022,0.3696995973587036,0.4883972406387329,0.95,0.82,0.0002499999999999997
1023,0.36964645981788635,0.4883524179458618,0.95,0.82,0.0002499999999999997
1024,0.36959391832351685,0.48830646276474,0.95,0.82,0.0002499999999999997
1025,0.3695419430732727,0.488259881734848,0.95,0.82,0.0002499999999999997
1026,0.36949044466018677,0.48821261525154114,0.95,0.82,0.0002499999999999997
1027,0.36943957209587097,0.48816508054733276,0.95,0.82,0.0002499999999999997
1028,0.3693891167640686,0.48811671137809753,0.95,0.82,0.0002499999999999997
1029,0.3693391680717468,0.4880674481391907,0.95,0.82,0.0002499999999999997
1030,0.36928969621658325,0.4880169630050659,0.95,0.82,0.0002499999999999997
1031,0.36924079060554504,0.48796507716178894,0.95,0.82,0.0002499999999999997
1032,0.3691924214363098,0.48791202902793884,0.95,0.82,0.0002499999999999997
1033,0.3691444396972656,0.4878576993942261,0.95,0.82,0.0002499999999999997
1034,0.3690970242023468,0.4878024160861969,0.95,0.82,0.0002499999999999997
1035,0.36904993653297424,0.4877462387084961,0.95,0.82,0.0002499999999999997
1036,0.3690035343170166,0.48768919706344604,0.95,0.82,0.0002499999999999997
1037,0.36895740032196045,0.4876314401626587,0.95,0.82,0.0002499999999999997
1038,0.36891189217567444,0.48757269978523254,0.95,0.82,0.0002499999999999997
1039,0.3688666820526123,0.4875130355358124,0.95,0.82,0.0002499999999999997
1040,0.36882197856903076,0.48745274543762207,0.95,0.82,0.0002499999999999997
1041,0.36877769231796265,0.48739147186279297,0.95,0.82,0.0002499999999999997
1042,0.3687339425086975,0.48732972145080566,0.95,0.82,0.0002499999999999997
1043,0.3686905801296234,0.48726731538772583,0.95,0.82,0.0002499999999999997
1044,0.3686475455760956,0.48720452189445496,0.95,0.82,0.0002499999999999997
1045,0.3686050772666931,0.48714107275009155,0.95,0.82,0.0002499999999999997
1046,0.3685629367828369,0.48707711696624756,0.95,0.82,0.0002499999999999997
1047,0.3685212731361389,0.4870123565196991,0.95,0.82,0.0002499999999999997
1048,0.36847996711730957,0.4869469404220581,0.95,0.82,0.0002499999999999997
1049,0.3684391677379608,0.4868808090686798,0.95,0.82,0.0002499999999999997
1050,0.3683986961841583,0.48681414127349854,0.95,0.82,0.0002499999999999997
1051,0.3683586120605469,0.4867469370365143,0.95,0.82,0.0002499999999999997
1052,0.36831891536712646,0.486679345369339,0.95,0.82,0.0002499999999999997
1053,0.36827972531318665,0.4866112768650055,0.95,0.82,0.0002499999999999997
1054,0.3682408630847931,0.48654261231422424,0.95,0.82,0.0002499999999999997
1055,0.3682023286819458,0.4864732325077057,0.95,0.82,0.0002499999999999997
1056,0.36816421151161194,0.48640334606170654,0.95,0.82,0.0002499999999999997
1057,0.3681264817714691,0.48633232712745667,0.95,0.82,0.0002499999999999997
1058,0.36808913946151733,0.48626065254211426,0.95,0.82,0.0002499999999999997
1059,0.36805209517478943,0.48618805408477783,0.95,0.82,0.0002499999999999997
1060,0.3680155277252197,0.4861149191856384,0.95,0.82,0.0002499999999999997
1061,0.3679791986942291,0.4860413372516632,0.95,0.82,0.0002499999999999997
1062,0.36794334650039673,0.485967218875885,0.95,0.82,0.0002499999999999997
1063,0.3679077923297882,0.485892653465271,0.95,0.82,0.0002499999999999997
1064,0.3678726553916931,0.4858173727989197,0.95,0.82,0.0002499999999999997
1065,0.36783772706985474,0.48574161529541016,0.95,0.82,0.0002499999999999997
1066,0.3678031861782074,0.4856649339199066,0.95,0.82,0.0002499999999999997
1067,0.3677690923213959,0.48558738827705383,0.95,0.82,0.0002499999999999997
1068,0.36773526668548584,0.4855092167854309,0.95,0.82,0.0002499999999999997
1069,0.36770179867744446,0.48543018102645874,0.95,0.82,0.0002499999999999997
1070,0.36766859889030457,0.48535072803497314,0.95,0.82,0.0002499999999999997
1071,0.3676358163356781,0.48527073860168457,0.95,0.82,0.0002499999999999997
1072,0.3676033020019531,0.4851902723312378,0.95,0.82,0.0002499999999999997
1073,0.3675711452960968,0.48510923981666565,0.95,0.82,0.0002499999999999997
1074,0.36753928661346436,0.4850277006626129,0.95,0.82,0.0002499999999999997
1075,0.3675077557563782,0.48494529724121094,0.95,0.82,0.0002499999999999997
1076,0.3674764931201935,0.48486217856407166,0.95,0.82,0.0002499999999999997
1077,0.3674454987049103,0.48477837443351746,0.95,0.82,0.0002499999999999997
1078,0.3674149215221405,0.4846937954425812,0.95,0.82,0.0002499999999999997
1079,0.3673846423625946,0.48460856080055237,0.95,0.82,0.0002499999999999997
1080,0.3673545718193054,0.4845229685306549,0.95,0.82,0.0002499999999999997
1081,0.36732491850852966,0.48443683981895447,0.95,0.82,0.0002499999999999997
1082,0.36729544401168823,0.4843505918979645,0.95,0.82,0.0002499999999999997
1083,0.36726629734039307,0.4842637777328491,0.95,0.82,0.0002499999999999997
1084,0.3672374486923218,0.4841763377189636,0.95,0.82,0.0002499999999999997
1085,0.36720892786979675,0.4840884506702423,0.95,0.82,0.0002499999999999997
1086,0.36718058586120605,0.48399993777275085,0.95,0.82,0.0002499999999999997
1087,0.3671526610851288,0.4839109480381012,0.95,0.82,0.0002499999999999997
1088,0.3671248257160187,0.4838215112686157,0.95,0.82,0.0002499999999999997
1089,0.367097407579422,0.48373177647590637,0.95,0.82,0.0002499999999999997
1090,0.36707019805908203,0.4836418628692627,0.95,0.82,0.0002499999999999997
1091,0.36704325675964355,0.4835517406463623,0.95,0.82,0.0002499999999999997
1092,0.36701664328575134,0.48346146941185,0.95,0.82,0.0002499999999999997
1093,0.36699017882347107,0.4833707809448242,0.95,0.82,0.0002499999999999997
1094,0.3669639825820923,0.4832797944545746,0.95,0.82,0.0002499999999999997
1095,0.3669380843639374,0.48318859934806824,0.95,0.82,0.0002499999999999997
1096,0.36691245436668396,0.4830968976020813,0.95,0.82,0.0002499999999999997
1097,0.36688709259033203,0.48300501704216003,0.95,0.82,0.0002499999999999997
1098,0.3668619394302368,0.4829130172729492,0.95,0.82,0.0002499999999999997
1099,0.3668369948863983,0.48282095789909363,0.95,0.82,0.0002499999999999997
1100,0.3668123185634613,0.4827287197113037,0.95,0.82,0.0002499999999999997
1101,0.3667879104614258,0.482636421918869,0.95,0.82,0.0002499999999999997
1102,0.3667636513710022,0.4825441837310791,0.95,0.82,0.0002499999999999997
1103,0.3667397201061249,0.4824516177177429,0.95,0.82,0.0002499999999999997
1104,0.36671602725982666,0.48235902190208435,0.95,0.82,0.0002499999999999997
1105,0.366692453622818,0.4822661280632019,0.95,0.82,0.0002499999999999997
1106,0.3666692078113556,0.4821733236312866,0.95,0.82,0.0002499999999999997
1107,0.3666461110115051,0.48208048939704895,0.95,0.82,0.0002499999999999997
1108,0.36662328243255615,0.4819875955581665,0.95,0.82,0.0002499999999999997
1109,0.3666006028652191,0.481894850730896,0.95,0.82,0.0002499999999999997
1110,0.36657819151878357,0.4818020761013031,0.95,0.82,0.0002499999999999997
1111,0.3665560781955719,0.4817095100879669,0.95,0.82,0.0002499999999999997
1112,0.36653396487236023,0.4816168546676636,0.95,0.82,0.0002499999999999997
1113,0.36651214957237244,0.48152437806129456,0.95,0.82,0.0002499999999999997
1114,0.36649060249328613,0.48143184185028076,0.95,0.82,0.0002499999999999997
1115,0.366469144821167,0.48133957386016846,0.95,0.82,0.0002499999999999997
1116,0.3664480447769165,0.4812474548816681,0.95,0.82,0.0002499999999999997
1117,0.3664270043373108,0.48115551471710205,0.95,0.82,0.0002499999999999997
1118,0.3664061725139618,0.48106375336647034,0.95,0.82,0.0002499999999999997
1119,0.3663855791091919,0.4809722602367401,0.95,0.82,0.0002499999999999997
1120,0.3663651645183563,0.48088112473487854,0.95,0.82,0.0002499999999999997
1121,0.3663448989391327,0.48079025745391846,0.95,0.82,0.0002499999999999997
1122,0.3663248121738434,0.48069944977760315,0.95,0.82,0.0002499999999999997
1123,0.3663049638271332,0.48060908913612366,0.95,0.82,0.0002499999999999997
1124,0.3662852942943573,0.4805189371109009,0.95,0.82,0.0002499999999999997
1125,0.36626574397087097,0.48042911291122437,0.95,0.82,0.0002499999999999997
1126,0.36624640226364136,0.48033982515335083,0.95,0.82,0.0002499999999999997
1127,0.36622726917266846,0.480250746011734,0.95,0.82,0.0002499999999999997
1128,0.3662082552909851,0.480162113904953,0.95,0.82,0.0002499999999999997
1129,0.36618945002555847,0.4800739288330078,0.95,0.82,0.0002499999999999997
1130,0.3661707937717438,0.47998616099357605,0.95,0.82,0.0002499999999999997
1131,0.3661523163318634,0.4798988103866577,0.95,0.82,0.0002499999999999997
1132,0.3661339581012726,0.47981181740760803,0.95,0.82,0.0002499999999999997
1133,0.3661158084869385,0.47972530126571655,0.95,0.82,0.0002499999999999997
1134,0.3660978376865387,0.4796392023563385,0.95,0.82,0.0002499999999999997
1135,0.36608001589775085,0.47955381870269775,0.95,0.83,0.0002499999999999997
1136,0.3660622537136078,0.4794687330722809,0.95,0.83,0.0002499999999999997
1137,0.3660447597503662,0.4793841540813446,0.95,0.83,0.0002499999999999997
1138,0.3660273253917694,0.47930023074150085,0.95,0.83,0.0002499999999999997
1139,0.3660101294517517,0.4792167544364929,0.95,0.83,0.0002499999999999997
1140,0.36599305272102356,0.47913384437561035,0.95,0.83,0.0002499999999999997
1141,0.36597615480422974,0.47905147075653076,0.95,0.83,0.0002499999999999997
1142,0.3659592866897583,0.4789695739746094,0.95,0.83,0.0002499999999999997
1143,0.3659425973892212,0.4788883924484253,0.95,0.83,0.0002499999999999997
1144,0.3659261465072632,0.47880762815475464,0.95,0.83,0.0002499999999999997
1145,0.3659098148345947,0.47872763872146606,0.95,0.83,0.0002499999999999997
1146,0.3658936023712158,0.47864827513694763,0.95,0.83,0.0002499999999999997
1147,0.36587750911712646,0.4785694479942322,0.95,0.83,0.0002499999999999997
1148,0.36586153507232666,0.4784910976886749,0.95,0.83,0.0002499999999999997
1149,0.3658456802368164,0.47841349244117737,0.95,0.83,0.0002499999999999997
1150,0.3658299744129181,0.4783366322517395,0.95,0.83,0.0002499999999999997
1151,0.3658144474029541,0.47826018929481506,0.95,0.83,0.0002499999999999997
1152,0.3657989501953125,0.47818461060523987,0.95,0.83,0.0002499999999999997
1153,0.36578369140625,0.4781095087528229,0.95,0.83,0.0002499999999999997
1154,0.3657686114311218,0.4780351221561432,0.95,0.83,0.0002499999999999997
1155,0.3657534420490265,0.4779614508152008,0.95,0.83,0.0002499999999999997
1156,0.3657386302947998,0.4778883755207062,0.95,0.83,0.0002499999999999997
1157,0.3657238483428955,0.4778158664703369,0.95,0.83,0.0002499999999999997
1158,0.365709125995636,0.47774410247802734,0.95,0.83,0.0002499999999999997
1159,0.3656946122646332,0.47767314314842224,0.95,0.83,0.0002499999999999997
1160,0.36568012833595276,0.4776027798652649,0.95,0.83,0.0002499999999999997
1161,0.36566582322120667,0.4775330424308777,0.95,0.83,0.0002499999999999997
1162,0.3656516671180725,0.47746413946151733,0.95,0.83,0.0002499999999999997
1163,0.3656376004219055,0.4773957431316376,0.95,0.83,0.0002499999999999997
1164,0.3656235933303833,0.47732803225517273,0.95,0.83,0.0002499999999999997
1165,0.36560970544815063,0.4772610366344452,0.95,0.83,0.0002499999999999997
1166,0.3655959367752075,0.47719475626945496,0.95,0.83,0.0002499999999999997
1167,0.36558234691619873,0.4771292209625244,0.95,0.83,0.0002499999999999997
1168,0.36556875705718994,0.47706443071365356,0.95,0.83,0.0002499999999999997
1169,0.3655553460121155,0.4770001471042633,0.95,0.83,0.0002499999999999997
1170,0.36554205417633057,0.4769366383552551,0.95,0.83,0.0002499999999999997
1171,0.36552882194519043,0.47687381505966187,0.95,0.83,0.0002499999999999997
1172,0.3655158281326294,0.47681158781051636,0.95,0.83,0.0002499999999999997
1173,0.36550286412239075,0.47675010561943054,0.95,0.83,0.0002499999999999997
1174,0.3654899299144745,0.47668933868408203,0.95,0.83,0.0002499999999999997
1175,0.36547714471817017,0.4766291379928589,0.95,0.83,0.0002499999999999997
1176,0.36546438932418823,0.4765697419643402,0.95,0.83,0.0002499999999999997
1177,0.365451842546463,0.4765109121799469,0.95,0.83,0.0002499999999999997
1178,0.3654392957687378,0.47645294666290283,0.95,0.83,0.0002499999999999997
1179,0.3654268980026245,0.47639548778533936,0.95,0.83,0.0002499999999999997
1180,0.3654146194458008,0.4763387441635132,0.95,0.83,0.0002499999999999997
1181,0.365402489900589,0.4762827157974243,0.95,0.83,0.0002499999999999997
1182,0.3653903305530548,0.4762272536754608,0.95,0.83,0.0002499999999999997
1183,0.36537835001945496,0.47617244720458984,0.95,0.83,0.0002499999999999997
1184,0.3653663694858551,0.476118266582489,0.95,0.83,0.0002499999999999997
1185,0.3653545379638672,0.47606486082077026,0.95,0.83,0.0002499999999999997
1186,0.36534273624420166,0.47601211071014404,0.95,0.83,0.0002499999999999997
1187,0.36533111333847046,0.4759599268436432,0.95,0.83,0.0002499999999999997
1188,0.3653196096420288,0.47590845823287964,0.95,0.83,0.0002499999999999997
1189,0.36530810594558716,0.47585761547088623,0.95,0.83,0.0002499999999999997
1190,0.36529672145843506,0.4758073091506958,0.95,0.83,0.0002499999999999997
1191,0.3652854263782501,0.47575777769088745,0.95,0.83,0.0002499999999999997
1192,0.3652742803096771,0.4757087826728821,0.95,0.83,0.0002499999999999997
1193,0.3652631342411041,0.47566041350364685,0.95,0.84,0.0002499999999999997
1194,0.36525198817253113,0.4756126403808594,0.95,0.84,0.0002499999999999997
1195,0.365241140127182,0.4755655527114868,0.95,0.84,0.0002499999999999997
1196,0.3652302920818329,0.4755190312862396,0.95,0.84,0.0002499999999999997
1197,0.3652194142341614,0.4754731357097626,0.95,0.84,0.0002499999999999997
1198,0.3652086555957794,0.4754278063774109,0.95,0.84,0.0002499999999999997
1199,0.3651981055736542,0.47538310289382935,0.95,0.84,0.0002499999999999997
1200,0.36518749594688416,0.47533896565437317,0.95,0.84,0.0002499999999999997
1201,0.3651770055294037,0.47529536485671997,0.95,0.84,0.0002499999999999997
1202,0.36516666412353516,0.4752524495124817,0.95,0.84,0.0002499999999999997
1203,0.36515629291534424,0.475210040807724,0.95,0.84,0.0002499999999999997
1204,0.36514607071876526,0.47516822814941406,0.95,0.84,0.0002499999999999997
1205,0.36513590812683105,0.47512710094451904,0.95,0.84,0.0002499999999999997
1206,0.3651258051395416,0.47508636116981506,0.95,0.84,0.0002499999999999997
1207,0.36511585116386414,0.475046306848526,0.95,0.84,0.0002499999999999997
1208,0.3651058077812195,0.475006639957428,0.95,0.84,0.0002499999999999997
1209,0.36509600281715393,0.4749675691127777,0.95,0.84,0.0002499999999999997
1210,0.3650861978530884,0.47492924332618713,0.95,0.84,0.0002499999999999997
1211,0.3650765120983124,0.4748912453651428,0.95,0.84,0.0002499999999999997
1212,0.36506688594818115,0.4748538136482239,0.95,0.84,0.0002499999999999997
1213,0.3650572597980499,0.4748169183731079,0.95,0.84,0.0002499999999999997
1214,0.36504775285720825,0.4747806489467621,0.95,0.84,0.0002499999999999997
1215,0.36503833532333374,0.4747448265552521,0.95,0.84,0.0002499999999999997
1216,0.365028977394104,0.4747094213962555,0.95,0.84,0.0002499999999999997
1217,0.36501964926719666,0.47467467188835144,0.95,0.84,0.0002499999999999997
1218,0.36501041054725647,0.47464028000831604,0.95,0.84,0.0002499999999999997
1219,0.36500126123428345,0.4746064245700836,0.95,0.84,0.0002499999999999997
1220,0.3649921417236328,0.4745731055736542,0.95,0.84,0.0002499999999999997
1221,0.36498311161994934,0.4745403230190277,0.95,0.84,0.0002499999999999997
1222,0.36497411131858826,0.47450798749923706,0.95,0.84,0.0002499999999999997
1223,0.3649652600288391,0.47447603940963745,0.95,0.84,0.0002499999999999997
1224,0.3649563491344452,0.47444474697113037,0.95,0.84,0.0002499999999999997
1225,0.3649476170539856,0.4744136929512024,0.95,0.84,0.0002499999999999997
1226,0.3649389147758484,0.47438323497772217,0.95,0.84,0.0002499999999999997
1227,0.36493024230003357,0.47435319423675537,0.95,0.84,0.0002499999999999997
1228,0.3649216592311859,0.4743236303329468,0.95,0.84,0.0002499999999999997
1229,0.36491313576698303,0.4742944836616516,0.95,0.84,0.0002499999999999997
1230,0.3649046719074249,0.4742657542228699,0.95,0.84,0.0002499999999999997
1231,0.3648962676525116,0.47423747181892395,0.95,0.84,0.0002499999999999997
1232,0.36488789319992065,0.4742096960544586,0.95,0.84,0.0002499999999999997
1233,0.3648796081542969,0.47418224811553955,0.95,0.84,0.0002499999999999997
1234,0.36487144231796265,0.4741554260253906,0.95,0.84,0.0002499999999999997
1235,0.36486324667930603,0.47412872314453125,0.95,0.84,0.0002499999999999997
1236,0.3648550808429718,0.47410252690315247,0.95,0.84,0.0002499999999999997
1237,0.3648470938205719,0.4740768074989319,0.95,0.84,0.0002499999999999997
1238,0.36483901739120483,0.4740513861179352,0.95,0.84,0.0002499999999999997
1239,0.3648310601711273,0.47402656078338623,0.95,0.84,0.0002499999999999997
1240,0.36482319235801697,0.4740019738674164,0.95,0.84,0.0002499999999999997
1241,0.3648154139518738,0.4739777445793152,0.95,0.84,0.0002499999999999997
1242,0.3648076355457306,0.4739539623260498,0.95,0.84,0.0002499999999999997
1243,0.3647998869419098,0.4739305377006531,0.95,0.84,0.0002499999999999997
1244,0.36479222774505615,0.4739075005054474,0.95,0.84,0.0002499999999999997
1245,0.3647846579551697,0.47388482093811035,0.95,0.84,0.0002499999999999997
1246,0.3647771179676056,0.4738624691963196,0.95,0.84,0.0002499999999999997
1247,0.3647695779800415,0.47384053468704224,0.95,0.84,0.0002499999999999997
1248,0.3647620677947998,0.4738188683986664,0.95,0.84,0.0002499999999999997
1249,0.36475470662117004,0.47379761934280396,0.95,0.84,0.0002499999999999997
1250,0.3647473454475403,0.473776638507843,0.95,0.84,0.0002499999999999997
1251,0.3647400736808777,0.4737561345100403,0.95,0.84,0.0002499999999999997
1252,0.36473286151885986,0.47373589873313904,0.95,0.84,0.0002499999999999997
1253,0.36472561955451965,0.4737159311771393,0.95,0.84,0.0002499999999999997
1254,0.3647184669971466,0.47369635105133057,0.95,0.84,0.0002499999999999997
1255,0.36471131443977356,0.4736770987510681,0.95,0.84,0.0002499999999999997
1256,0.36470428109169006,0.4736582040786743,0.95,0.84,0.0002499999999999997
1257,0.36469730734825134,0.4736396372318268,0.95,0.84,0.0002499999999999997
1258,0.3646903336048126,0.4736213684082031,0.95,0.84,0.0002499999999999997
1259,0.36468344926834106,0.47360333800315857,0.95,0.84,0.0002499999999999997
1260,0.3646765649318695,0.47358569502830505,0.95,0.84,0.0002499999999999997
1261,0.3646697998046875,0.47356823086738586,0.95,0.84,0.0002499999999999997
1262,0.3646630048751831,0.47355106472969055,0.95,0.84,0.0002499999999999997
1263,0.3646562099456787,0.47353440523147583,0.95,0.84,0.0002499999999999997
1264,0.36464962363243103,0.4735178053379059,0.95,0.84,0.0002499999999999997
1265,0.3646429777145386,0.473501592874527,0.95,0.84,0.0002499999999999997
1266,0.3646363914012909,0.47348570823669434,0.95,0.84,0.0002499999999999997
1267,0.3646297752857208,0.4734700322151184,0.95,0.84,0.0002499999999999997
1268,0.36462336778640747,0.4734545946121216,0.95,0.84,0.0002499999999999997
1269,0.36461690068244934,0.47343936562538147,0.95,0.84,0.0002499999999999997
1270,0.3646104335784912,0.47342440485954285,0.95,0.84,0.0002499999999999997
1271,0.3646041452884674,0.4734097421169281,0.95,0.84,0.0002499999999999997
1272,0.3645978271961212,0.47339534759521484,0.95,0.84,0.0002499999999999997
1273,0.364591509103775,0.47338131070137024,0.95,0.84,0.0002499999999999997
1274,0.36458534002304077,0.4733673930168152,0.95,0.84,0.0002499999999999997
1275,0.36457908153533936,0.473353773355484,0.95,0.84,0.0002499999999999997
1276,0.3645729422569275,0.47334033250808716,0.95,0.84,0.0002499999999999997
1277,0.364566832780838,0.4733272194862366,0.95,0.84,0.0002499999999999997
1278,0.36456072330474854,0.47331416606903076,0.95,0.84,0.0002499999999999997
1279,0.364554762840271,0.473301500082016,0.95,0.84,0.0002499999999999997
1280,0.36454877257347107,0.47328895330429077,0.95,0.84,0.0002499999999999997
1281,0.36454278230667114,0.47327664494514465,0.95,0.84,0.0002499999999999997
1282,0.3645368218421936,0.4732646644115448,0.95,0.84,0.0002499999999999997
1283,0.3645309507846832,0.4732528626918793,0.95,0.84,0.0002499999999999997
1284,0.36452507972717285,0.4732411503791809,0.95,0.84,0.0002499999999999997
1285,0.3645193576812744,0.4732297658920288,0.95,0.84,0.0002499999999999997
1286,0.3645135462284088,0.4732183814048767,0.95,0.84,0.0002499999999999997
1287,0.3645078241825104,0.47320738434791565,0.95,0.84,0.0002499999999999997
1288,0.3645021915435791,0.47319647669792175,0.95,0.84,0.0002499999999999997
1289,0.36449652910232544,0.47318583726882935,0.95,0.84,0.0002499999999999997
1290,0.36449095606803894,0.4731754958629608,0.95,0.84,0.0002499999999999997
1291,0.36448532342910767,0.4731650948524475,0.95,0.84,0.0002499999999999997
1292,0.36447983980178833,0.47315505146980286,0.95,0.84,0.0002499999999999997
1293,0.36447426676750183,0.473145067691803,0.95,0.84,0.0002499999999999997
1294,0.3644688129425049,0.473135381937027,0.95,0.84,0.0002499999999999997
1295,0.3644633889198303,0.47312575578689575,0.95,0.84,0.0002499999999999997
1296,0.3644579350948334,0.47311636805534363,0.95,0.84,0.0002499999999999997
1297,0.36445263028144836,0.47310715913772583,0.95,0.84,0.0002499999999999997
1298,0.36444732546806335,0.47309795022010803,0.95,0.84,0.0002499999999999997
1299,0.36444205045700073,0.4730890393257141,0.95,0.84,0.0002499999999999997
1300,0.3644367456436157,0.47308024764060974,0.95,0.84,0.0002499999999999997
1301,0.3644315302371979,0.4730716645717621,0.95,0.84,0.0002499999999999997
1302,0.3644263446331024,0.4730631113052368,0.95,0.84,0.0002499999999999997
1303,0.36442115902900696,0.4730548858642578,0.95,0.84,0.0002499999999999997
1304,0.3644160330295563,0.47304657101631165,0.95,0.84,0.0002499999999999997
1305,0.36441096663475037,0.47303855419158936,0.95,0.84,0.0002499999999999997
1306,0.36440590023994446,0.4730305075645447,0.95,0.84,0.0002499999999999997
1307,0.36440086364746094,0.47302281856536865,0.95,0.84,0.0002499999999999997
1308,0.3643958568572998,0.4730149805545807,0.95,0.84,0.0002499999999999997
1309,0.3643909692764282,0.473007470369339,0.95,0.84,0.0002499999999999997
1310,0.3643859922885895,0.47300010919570923,0.95,0.84,0.0002499999999999997
1311,0.3643810749053955,0.472992867231369,0.95,0.84,0.0002499999999999997
1312,0.3643762171268463,0.47298571467399597,0.95,0.84,0.0002499999999999997
1313,0.3643714189529419,0.4729786217212677,0.95,0.84,0.0002499999999999997
1314,0.3643665611743927,0.4729715585708618,0.95,0.84,0.0002499999999999997
1315,0.3643617630004883,0.47296467423439026,0.95,0.84,0.0002499999999999997
1316,0.3643570840358734,0.4729578495025635,0.95,0.84,0.0002499999999999997
1317,0.3643522560596466,0.47295132279396057,0.95,0.84,0.0002499999999999997
1318,0.3643476366996765,0.4729447066783905,0.95,0.84,0.0002499999999999997
1319,0.36434295773506165,0.4729381799697876,0.95,0.84,0.0002499999999999997
1320,0.36433830857276917,0.472931832075119,0.95,0.84,0.0002499999999999997
1321,0.36433371901512146,0.47292560338974,0.95,0.84,0.0002499999999999997
1322,0.36432909965515137,0.47291943430900574,0.95,0.84,0.0002499999999999997
1323,0.36432456970214844,0.4729132354259491,0.95,0.84,0.0002499999999999997
1324,0.3643200993537903,0.4729071855545044,0.95,0.84,0.0002499999999999997
1325,0.36431559920310974,0.47290122509002686,0.95,0.84,0.0002499999999999997
1326,0.3643110990524292,0.4728953242301941,0.95,0.84,0.0002499999999999997
1327,0.3643066883087158,0.4728894829750061,0.95,0.84,0.0002499999999999997
1328,0.3643023371696472,0.4728837311267853,0.95,0.84,0.0002499999999999997
1329,0.36429789662361145,0.472878098487854,0.95,0.84,0.0002499999999999997
1330,0.36429354548454285,0.4728725552558899,0.95,0.84,0.0002499999999999997
1331,0.36428916454315186,0.47286710143089294,0.95,0.84,0.0002499999999999997
1332,0.3642849028110504,0.47286155819892883,0.95,0.84,0.0002499999999999997
1333,0.3642806112766266,0.4728560149669647,0.95,0.84,0.0002499999999999997
1334,0.3642764389514923,0.4728507101535797,0.95,0.84,0.0002499999999999997
1335,0.36427220702171326,0.47284531593322754,0.95,0.84,0.0002499999999999997
1336,0.3642679452896118,0.47284001111984253,0.95,0.84,0.0002499999999999997
1337,0.36426377296447754,0.4728347361087799,0.95,0.84,0.0002499999999999997
1338,0.36425963044166565,0.47282958030700684,0.95,0.84,0.0002499999999999997
1339,0.36425551772117615,0.47282448410987854,0.95,0.84,0.0002499999999999997
1340,0.36425143480300903,0.4728192389011383,0.95,0.84,0.0002499999999999997
1341,0.3642473518848419,0.4728142023086548,0.95,0.84,0.0002499999999999997
1342,0.3642432689666748,0.4728091061115265,0.95,0.84,0.0002499999999999997
1343,0.36423930525779724,0.4728041887283325,0.95,0.84,0.0002499999999999997
1344,0.3642352819442749,0.4727991223335266,0.95,0.84,0.0002499999999999997
1345,0.3642313480377197,0.47279417514801025,0.95,0.84,0.0002499999999999997
1346,0.36422738432884216,0.4727891981601715,0.95,0.84,0.0002499999999999997
1347,0.364223450422287,0.47278428077697754,0.95,0.84,0.0002499999999999997
1348,0.3642195165157318,0.47277939319610596,0.95,0.84,0.0002499999999999997
1349,0.3642156720161438,0.4727744162082672,0.95,0.84,0.0002499999999999997
1350,0.3642117381095886,0.47276949882507324,0.95,0.84,0.0002499999999999997
1351,0.3642078638076782,0.47276467084884644,0.95,0.84,0.0002499999999999997
1352,0.3642041087150574,0.47275981307029724,0.95,0.84,0.0002499999999999997
1353,0.36420032382011414,0.47275489568710327,0.95,0.84,0.0002499999999999997
1354,0.3641965389251709,0.4727500081062317,0.95,0.84,0.0002499999999999997
1355,0.36419278383255005,0.4727451801300049,0.95,0.84,0.0002499999999999997
1356,0.36418911814689636,0.4727402925491333,0.95,0.84,0.0002499999999999997
1357,0.3641853630542755,0.4727354049682617,0.95,0.84,0.0002499999999999997
1358,0.36418166756629944,0.4727303981781006,0.95,0.84,0.0002499999999999997
1359,0.3641780614852905,0.47272545099258423,0.95,0.84,0.0002499999999999997
1360,0.36417442560195923,0.47272059321403503,0.95,0.84,0.0002499999999999997
1361,0.36417078971862793,0.4727156460285187,0.95,0.84,0.0002499999999999997
1362,0.364167183637619,0.4727106988430023,0.95,0.84,0.0002499999999999997
1363,0.3641635477542877,0.47270575165748596,0.95,0.84,0.0002499999999999997
1364,0.36416009068489075,0.47270071506500244,0.95,0.84,0.0002499999999999997
1365,0.364156574010849,0.4726957082748413,0.95,0.84,0.0002499999999999997
1366,0.36415305733680725,0.4726905822753906,0.95,0.84,0.0002499999999999997
1367,0.3641494810581207,0.47268545627593994,0.95,0.84,0.0002499999999999997
1368,0.36414599418640137,0.4726804494857788,0.95,0.84,0.0002499999999999997
1369,0.3641425669193268,0.4726751744747162,0.95,0.84,0.0002499999999999997
1370,0.3641391396522522,0.47266995906829834,0.95,0.84,0.0002499999999999997
1371,0.3641357421875,0.47266465425491333,0.95,0.84,0.0002499999999999997
1372,0.3641323447227478,0.47265946865081787,0.95,0.84,0.0002499999999999997
1373,0.3641289472579956,0.4726540744304657,0.95,0.84,0.0002499999999999997
1374,0.3641256093978882,0.47264865040779114,0.95,0.84,0.0002499999999999997
1375,0.36412227153778076,0.47264325618743896,0.95,0.84,0.0002499999999999997
1376,0.3641189634799957,0.47263771295547485,0.95,0.84,0.0002499999999999997
1377,0.3641155958175659,0.47263213992118835,0.95,0.84,0.0002499999999999997
1378,0.36411240696907043,0.47262653708457947,0.95,0.84,0.0002499999999999997
1379,0.3641091287136078,0.4726208746433258,0.95,0.84,0.0002499999999999997
1380,0.36410582065582275,0.47261500358581543,0.95,0.84,0.0002499999999999997
1381,0.36410263180732727,0.4726092219352722,0.95,0.84,0.0002499999999999997
1382,0.3640994131565094,0.47260338068008423,0.95,0.84,0.0002499999999999997
1383,0.36409619450569153,0.47259747982025146,0.95,0.84,0.0002499999999999997
1384,0.36409300565719604,0.47259142994880676,0.95,0.84,0.0002499999999999997
1385,0.3640899360179901,0.4725852608680725,0.95,0.84,0.0002499999999999997
1386,0.36408674716949463,0.4725790023803711,0.95,0.84,0.0002499999999999997
1387,0.3640836477279663,0.47257277369499207,0.95,0.84,0.0002499999999999997
1388,0.3640804588794708,0.4725664556026459,0.95,0.84,0.0002499999999999997
1389,0.36407744884490967,0.4725600481033325,0.95,0.84,0.0002499999999999997
1390,0.36407434940338135,0.4725535213947296,0.95,0.84,0.0002499999999999997
1391,0.3640713095664978,0.47254684567451477,0.95,0.84,0.0002499999999999997
1392,0.36406832933425903,0.47254014015197754,0.95,0.84,0.0002499999999999997
1393,0.3640652894973755,0.47253334522247314,0.95,0.84,0.0002499999999999997
1394,0.36406227946281433,0.4725263714790344,0.95,0.84,0.0002499999999999997
1395,0.36405929923057556,0.4725194573402405,0.95,0.84,0.0002499999999999997
1396,0.3640563189983368,0.47251227498054504,0.95,0.84,0.0002499999999999997
1397,0.3640533685684204,0.4725050628185272,0.95,0.84,0.0002499999999999997
1398,0.3640504777431488,0.47249776124954224,0.95,0.84,0.0002499999999999997
1399,0.3640475571155548,0.4724903404712677,0.95,0.84,0.0002499999999999997
1400,0.3640446364879608,0.4724828004837036,0.95,0.84,0.0002499999999999997
1401,0.3640417456626892,0.47247520089149475,0.95,0.84,0.0002499999999999997
1402,0.3640388548374176,0.4724673330783844,0.95,0.84,0.0002499999999999997
1403,0.36403602361679077,0.4724595248699188,0.95,0.84,0.0002499999999999997
1404,0.36403316259384155,0.47245144844055176,0.95,0.84,0.0002499999999999997
1405,0.3640303313732147,0.4724433422088623,0.95,0.84,0.0002499999999999997
1406,0.36402755975723267,0.47243499755859375,0.95,0.84,0.0002499999999999997
1407,0.36402469873428345,0.47242656350135803,0.95,0.84,0.0002499999999999997
1408,0.36402198672294617,0.4724180996417999,0.95,0.84,0.0002499999999999997
1409,0.36401915550231934,0.4724093973636627,0.95,0.84,0.0002499999999999997
1410,0.36401641368865967,0.47240057587623596,0.95,0.84,0.0002499999999999997
1411,0.364013671875,0.47239163517951965,0.95,0.84,0.0002499999999999997
1412,0.3640110492706299,0.47238263487815857,0.95,0.84,0.0002499999999999997
1413,0.36400824785232544,0.47237342596054077,0.95,0.84,0.0002499999999999997
1414,0.36400553584098816,0.47236400842666626,0.95,0.84,0.0002499999999999997
1415,0.36400288343429565,0.4723544716835022,0.95,0.84,0.0002499999999999997
1416,0.36400023102760315,0.47234484553337097,0.95,0.84,0.0002499999999999997
1417,0.36399757862091064,0.47233501076698303,0.95,0.84,0.0002499999999999997
1418,0.3639949560165405,0.47232505679130554,0.95,0.84,0.0002499999999999997
1419,0.3639923334121704,0.47231483459472656,0.95,0.84,0.0002499999999999997
1420,0.3639897406101227,0.4723045825958252,0.95,0.84,0.0002499999999999997
1421,0.36398711800575256,0.4722940921783447,0.95,0.84,0.0002499999999999997
1422,0.363984614610672,0.4722835123538971,0.95,0.84,0.0002499999999999997
1423,0.36398202180862427,0.47227269411087036,0.95,0.84,0.0002499999999999997
1424,0.3639794588088989,0.47226187586784363,0.95,0.84,0.0002499999999999997
1425,0.3639768958091736,0.47225067019462585,0.95,0.84,0.0002499999999999997
1426,0.3639744222164154,0.4722394645214081,0.95,0.84,0.0002499999999999997
1427,0.36397185921669006,0.47222793102264404,0.95,0.84,0.0002499999999999997
1428,0.3639694154262543,0.4722163677215576,0.95,0.84,0.0002499999999999997
1429,0.3639669120311737,0.4722044765949249,0.95,0.84,0.0002499999999999997
1430,0.36396437883377075,0.47219252586364746,0.95,0.84,0.0002499999999999997
1431,0.36396199464797974,0.4721803665161133,0.95,0.84,0.0002499999999999997
1432,0.36395955085754395,0.47216796875,0.95,0.84,0.0002499999999999997
1433,0.363957017660141,0.4721554219722748,0.95,0.84,0.0002499999999999997
1434,0.36395466327667236,0.47214266657829285,0.95,0.84,0.0002499999999999997
1435,0.36395224928855896,0.4721296727657318,0.95,0.84,0.0002499999999999997
1436,0.36394980549812317,0.4721166491508484,0.95,0.84,0.0002499999999999997
1437,0.36394745111465454,0.4721032977104187,0.95,0.84,0.0002499999999999997
1438,0.36394503712654114,0.4720899164676666,0.95,0.84,0.0002499999999999997
1439,0.3639427125453949,0.4720761477947235,0.95,0.84,0.0002499999999999997
1440,0.36394038796424866,0.4720621109008789,0.95,0.84,0.0002499999999999997
1441,0.36393803358078003,0.47204798460006714,0.95,0.84,0.0002499999999999997
1442,0.3639357089996338,0.47203367948532104,0.95,0.84,0.0002499999999999997
1443,0.36393338441848755,0.4720191955566406,0.95,0.84,0.0002499999999999997
1444,0.36393114924430847,0.4720044732093811,0.95,0.84,0.0002499999999999997
1445,0.36392879486083984,0.47198954224586487,0.95,0.84,0.0002499999999999997
1446,0.3639265298843384,0.47197434306144714,0.95,0.84,0.0002499999999999997
1447,0.3639242649078369,0.4719589352607727,0.95,0.84,0.0002499999999999997
1448,0.36392199993133545,0.47194334864616394,0.95,0.84,0.0002499999999999997
1449,0.36391976475715637,0.4719276428222656,0.95,0.84,0.0002499999999999997
1450,0.3639175295829773,0.4719116687774658,0.95,0.84,0.0002499999999999997
1451,0.3639152944087982,0.47189533710479736,0.95,0.84,0.0002499999999999997
1452,0.3639131188392639,0.47187888622283936,0.95,0.84,0.0002499999999999997
1453,0.36391085386276245,0.47186219692230225,0.95,0.84,0.0002499999999999997
1454,0.3639087677001953,0.4718453586101532,0.95,0.84,0.0002499999999999997
1455,0.3639065623283386,0.47182807326316833,0.95,0.84,0.0002499999999999997
1456,0.36390429735183716,0.4718107581138611,0.95,0.84,0.0002499999999999997
1457,0.3639022409915924,0.47179320454597473,0.95,0.84,0.0002499999999999997
1458,0.36390015482902527,0.4717753529548645,0.95,0.84,0.0002499999999999997
1459,0.3638978898525238,0.47175732254981995,0.95,0.84,0.0002499999999999997
1460,0.36389583349227905,0.4717390835285187,0.95,0.84,0.0002499999999999997
1461,0.36389368772506714,0.47172054648399353,0.95,0.84,0.0002499999999999997
1462,0.3638915717601776,0.4717017412185669,0.95,0.84,0.0002499999999999997
1463,0.36388954520225525,0.4716828465461731,0.95,0.84,0.0002499999999999997
1464,0.3638874888420105,0.4716637134552002,0.95,0.84,0.0002499999999999997
1465,0.3638853430747986,0.47164425253868103,0.95,0.84,0.0002499999999999997
1466,0.3638833165168762,0.4716245234012604,0.95,0.84,0.0002499999999999997
1467,0.3638812303543091,0.4716046154499054,0.95,0.84,0.0002499999999999997
1468,0.3638792335987091,0.4715844988822937,0.95,0.84,0.0002499999999999997
1469,0.36387717723846436,0.47156402468681335,0.95,0.84,0.0002499999999999997
1470,0.36387524008750916,0.47154343128204346,0.95,0.84,0.0002499999999999997
1471,0.3638732135295868,0.47152256965637207,0.95,0.84,0.0002499999999999997
1472,0.36387112736701965,0.4715013802051544,0.95,0.84,0.0002499999999999997
1473,0.3638691306114197,0.47148001194000244,0.95,0.84,0.0002499999999999997
1474,0.3638671934604645,0.47145846486091614,0.95,0.84,0.0002499999999999997
1475,0.3638652563095093,0.47143658995628357,0.95,0.84,0.0002499999999999997
1476,0.3638632893562317,0.4714146554470062,0.95,0.84,0.0002499999999999997
1477,0.3638613224029541,0.4713922441005707,0.95,0.84,0.0002499999999999997
1478,0.3638593554496765,0.4713696539402008,0.95,0.84,0.0002499999999999997
1479,0.3638574481010437,0.4713468551635742,0.95,0.84,0.0002499999999999997
1480,0.3638555109500885,0.47132378816604614,0.95,0.84,0.0002499999999999997
1481,0.3638535737991333,0.47130051255226135,0.95,0.84,0.0002499999999999997
1482,0.36385172605514526,0.4712770879268646,0.95,0.84,0.0002499999999999997
1483,0.36384981870651245,0.4712532162666321,0.95,0.84,0.0002499999999999997
1484,0.3638479709625244,0.4712291657924652,0.95,0.84,0.0002499999999999997
1485,0.3638460636138916,0.471204936504364,0.95,0.84,0.0002499999999999997
1486,0.3638441860675812,0.47118037939071655,0.95,0.84,0.0002499999999999997
1487,0.36384230852127075,0.47115567326545715,0.95,0.84,0.0002499999999999997
1488,0.3638404905796051,0.4711306095123291,0.95,0.84,0.0002499999999999997
1489,0.3638386130332947,0.4711053967475891,0.95,0.84,0.0002499999999999997
1490,0.36383679509162903,0.4710799753665924,0.95,0.84,0.0002499999999999997
1491,0.3638349771499634,0.4710543155670166,0.95,0.84,0.0002499999999999997
1492,0.36383315920829773,0.4710283577442169,0.95,0.84,0.0002499999999999997
1493,0.36383137106895447,0.4710022807121277,0.95,0.84,0.0002499999999999997
1494,0.3638295829296112,0.470975786447525,0.95,0.84,0.0002499999999999997
1495,0.36382779479026794,0.4709491729736328,0.95,0.84,0.0002499999999999997
1496,0.3638259768486023,0.4709223210811615,0.95,0.84,0.0002499999999999997
1497,0.36382418870925903,0.47089511156082153,0.95,0.84,0.0002499999999999997
1498,0.36382240056991577,0.4708678126335144,0.95,0.84,0.0002499999999999997
1499,0.3638206720352173,0.4708402156829834,0.95,0.84,0.0002499999999999997
1500,0.3638189733028412,0.4708126187324524,0.95,0.84,0.0002499999999999997
1501,0.3638172149658203,0.47078457474708557,0.95,0.84,0.0002499999999999997
1502,0.3638154864311218,0.4707563519477844,0.95,0.84,0.0002499999999999997
1503,0.36381375789642334,0.47072792053222656,0.95,0.84,0.0002499999999999997
1504,0.36381199955940247,0.47069934010505676,0.95,0.84,0.0002499999999999997
1505,0.36381036043167114,0.47067034244537354,0.95,0.84,0.0002499999999999997
1506,0.36380863189697266,0.47064128518104553,0.95,0.84,0.0002499999999999997
1507,0.36380699276924133,0.47061192989349365,0.95,0.84,0.0002499999999999997
1508,0.36380526423454285,0.47058242559432983,0.95,0.84,0.0002499999999999997
1509,0.36380356550216675,0.4705527424812317,0.95,0.84,0.0002499999999999997
1510,0.3638019263744354,0.47052276134490967,0.95,0.84,0.0002499999999999997
1511,0.3638003170490265,0.4704926609992981,0.95,0.84,0.0002499999999999997
1512,0.3637985587120056,0.4704623520374298,0.95,0.84,0.0002499999999999997
1513,0.3637969195842743,0.4704318344593048,0.95,0.84,0.0002499999999999997
1514,0.36379531025886536,0.4704010486602783,0.95,0.84,0.0002499999999999997
1515,0.3637937307357788,0.4703701436519623,0.95,0.84,0.0002499999999999997
1516,0.3637920618057251,0.4703390598297119,0.95,0.84,0.0002499999999999997
1517,0.3637904226779938,0.47030773758888245,0.95,0.84,0.0002499999999999997
1518,0.363788902759552,0.4702763259410858,0.95,0.84,0.0002499999999999997
1519,0.3637872636318207,0.4702446758747101,0.95,0.84,0.0002499999999999997
1520,0.36378565430641174,0.47021281719207764,0.95,0.84,0.0002499999999999997
1521,0.36378413438796997,0.47018080949783325,0.95,0.84,0.0002499999999999997
1522,0.36378249526023865,0.47014862298965454,0.95,0.84,0.0002499999999999997
1523,0.3637808561325073,0.4701163172721863,0.95,0.84,0.0002499999999999997
1524,0.36377933621406555,0.47008389234542847,0.95,0.84,0.0002499999999999997
1525,0.363777756690979,0.47005125880241394,0.95,0.84,0.0002499999999999997
1526,0.36377623677253723,0.4700183570384979,0.95,0.84,0.0002499999999999997
1527,0.36377474665641785,0.4699854254722595,0.95,0.84,0.0002499999999999997
1528,0.3637731969356537,0.4699522852897644,0.95,0.84,0.0002499999999999997
1529,0.3637717366218567,0.4699190557003021,0.95,0.84,0.0002499999999999997
1530,0.36377012729644775,0.4698856770992279,0.95,0.84,0.0002499999999999997
1531,0.36376866698265076,0.4698522090911865,0.95,0.84,0.0002499999999999997
1532,0.3637671172618866,0.469818651676178,0.95,0.84,0.0002499999999999997
1533,0.36376556754112244,0.4697847068309784,0.95,0.84,0.0002499999999999997
1534,0.36376410722732544,0.4697508215904236,0.95,0.84,0.0002499999999999997
1535,0.36376267671585083,0.46971678733825684,0.95,0.84,0.0002499999999999997
1536,0.36376112699508667,0.4696826934814453,0.95,0.84,0.0002499999999999997
1537,0.36375972628593445,0.4696483910083771,0.95,0.84,0.0002499999999999997
1538,0.36375823616981506,0.46961405873298645,0.95,0.84,0.0002499999999999997
1539,0.3637567460536957,0.4695795774459839,0.95,0.84,0.0002499999999999997
1540,0.36375531554222107,0.46954500675201416,0.95,0.84,0.0002499999999999997
1541,0.3637538552284241,0.46951043605804443,0.95,0.84,0.0002499999999999997
1542,0.36375245451927185,0.46947571635246277,0.95,0.84,0.0002499999999999997
1543,0.36375096440315247,0.46944087743759155,0.95,0.84,0.0002499999999999997
1544,0.36374953389167786,0.46940600872039795,0.95,0.84,0.0002499999999999997
1545,0.36374813318252563,0.46937093138694763,0.95,0.84,0.0002499999999999997
1546,0.3637467324733734,0.4693359136581421,0.95,0.84,0.0002499999999999997
1547,0.3637453019618988,0.469300776720047,0.95,0.84,0.0002499999999999997
1548,0.3637439012527466,0.46926558017730713,0.95,0.84,0.0002499999999999997
1549,0.36374253034591675,0.46923038363456726,0.95,0.84,0.0002499999999999997
1550,0.36374109983444214,0.46919509768486023,0.95,0.84,0.0002499999999999997
1551,0.3637397289276123,0.4691598415374756,0.95,0.84,0.0002499999999999997
1552,0.36373835802078247,0.469124436378479,0.95,0.84,0.0002499999999999997
1553,0.36373698711395264,0.46908897161483765,0.95,0.84,0.0002499999999999997
1554,0.3637356460094452,0.46905356645584106,0.95,0.84,0.0002499999999999997
1555,0.36373427510261536,0.4690181016921997,0.95,0.84,0.0002499999999999997
1556,0.36373287439346313,0.46898260712623596,0.95,0.84,0.0002499999999999997
1557,0.3637315332889557,0.46894705295562744,0.95,0.84,0.0002499999999999997
1558,0.36373019218444824,0.4689115583896637,0.95,0.84,0.0002499999999999997
1559,0.3637288808822632,0.46887603402137756,0.95,0.84,0.0002499999999999997
1560,0.36372753977775574,0.46884047985076904,0.95,0.84,0.0002499999999999997
1561,0.36372625827789307,0.4688050150871277,0.95,0.84,0.0002499999999999997
1562,0.363724946975708,0.46876946091651917,0.95,0.84,0.0002499999999999997
1563,0.3637235760688782,0.46873393654823303,0.95,0.84,0.0002499999999999997
1564,0.3637222349643707,0.4686984717845917,0.95,0.84,0.0002499999999999997
1565,0.36372098326683044,0.46866297721862793,0.95,0.84,0.0002499999999999997
1566,0.3637196719646454,0.4686274230480194,0.95,0.84,0.0002499999999999997
1567,0.3637184202671051,0.4685920774936676,0.95,0.84,0.0002499999999999997
1568,0.3637171685695648,0.46855664253234863,0.95,0.84,0.0002499999999999997
1569,0.3637158274650574,0.46852126717567444,0.95,0.84,0.0002499999999999997
1570,0.3637146055698395,0.4684859812259674,0.95,0.84,0.0002499999999999997
1571,0.36371326446533203,0.468450665473938,0.95,0.84,0.0002499999999999997
1572,0.36371201276779175,0.46841543912887573,0.95,0.84,0.0002499999999999997
1573,0.36371076107025146,0.468380331993103,0.95,0.84,0.0002499999999999997
1574,0.36370953917503357,0.46834510564804077,0.95,0.84,0.0002499999999999997
1575,0.3637082576751709,0.4683101773262024,0.95,0.84,0.0002499999999999997
1576,0.3637070059776306,0.46827518939971924,0.95,0.84,0.0002499999999999997
1577,0.3637057840824127,0.46824029088020325,0.95,0.84,0.0002499999999999997
1578,0.3637045919895172,0.46820545196533203,0.95,0.84,0.0002499999999999997
1579,0.36370331048965454,0.46817076206207275,0.95,0.84,0.0002499999999999997
1580,0.36370208859443665,0.4681360125541687,0.95,0.84,0.0002499999999999997
1581,0.3637009561061859,0.46810150146484375,0.95,0.84,0.0002499999999999997
1582,0.36369967460632324,0.4680670499801636,0.95,0.84,0.0002499999999999997
1583,0.3636985123157501,0.46803271770477295,0.95,0.84,0.0002499999999999997
1584,0.3636972904205322,0.4679984152317047,0.95,0.84,0.0002499999999999997
1585,0.3636960983276367,0.4679642915725708,0.95,0.84,0.0002499999999999997
1586,0.363694965839386,0.46793022751808167,0.95,0.84,0.0002499999999999997
1587,0.3636937439441681,0.4678962826728821,0.95,0.84,0.0002499999999999997
1588,0.3636925220489502,0.46786239743232727,0.95,0.84,0.0002499999999999997
1589,0.3636913597583771,0.4678286612033844,0.95,0.84,0.0002499999999999997
1590,0.36369019746780396,0.46779513359069824,0.95,0.84,0.0002499999999999997
1591,0.36368903517723083,0.46776169538497925,0.95,0.84,0.0002499999999999997
1592,0.3636878728866577,0.4677283763885498,0.95,0.84,0.0002499999999999997
1593,0.363686740398407,0.4676952064037323,0.95,0.84,0.0002499999999999997
1594,0.36368560791015625,0.46766212582588196,0.95,0.84,0.0002499999999999997
1595,0.36368441581726074,0.4676291346549988,0.95,0.84,0.0002499999999999997
1596,0.3636832535266876,0.4675964117050171,0.95,0.84,0.0002499999999999997
1597,0.36368218064308167,0.46756377816200256,0.95,0.84,0.0002499999999999997
1598,0.36368095874786377,0.46753132343292236,0.95,0.84,0.0002499999999999997
1599,0.3636799156665802,0.46749892830848694,0.95,0.84,0.0002499999999999997
1600,0.3636786937713623,0.4674667716026306,0.95,0.84,0.0002499999999999997
1601,0.36367762088775635,0.46743476390838623,0.95,0.84,0.0002499999999999997
1602,0.3636764883995056,0.4674028754234314,0.95,0.84,0.0002499999999999997
1603,0.36367547512054443,0.4673711359500885,0.95,0.85,0.0002499999999999997
1604,0.3636743128299713,0.4673396050930023,0.95,0.85,0.0002499999999999997
1605,0.36367321014404297,0.46730828285217285,0.95,0.85,0.0002499999999999997
1606,0.363672137260437,0.46727699041366577,0.95,0.85,0.0002499999999999997
1607,0.36367103457450867,0.46724602580070496,0.95,0.85,0.0002499999999999997
1608,0.36366990208625793,0.46721509099006653,0.95,0.85,0.0002499999999999997
1609,0.36366888880729675,0.4671844244003296,0.95,0.85,0.0002499999999999997
1610,0.3636677861213684,0.4671539068222046,0.95,0.85,0.0002499999999999997
1611,0.36366671323776245,0.4671235680580139,0.95,0.85,0.0002499999999999997
1612,0.3636656105518341,0.46709346771240234,0.95,0.85,0.0002499999999999997
1613,0.3636646270751953,0.46706345677375793,0.95,0.85,0.0002499999999999997
1614,0.3636634945869446,0.46703365445137024,0.95,0.85,0.0002499999999999997
1615,0.363662451505661,0.46700409054756165,0.95,0.85,0.0002499999999999997
1616,0.36366137862205505,0.4669746160507202,0.95,0.85,0.0002499999999999997
1617,0.3636603057384491,0.4669452905654907,0.95,0.85,0.0002499999999999997
1618,0.3636592924594879,0.4669163227081299,0.95,0.85,0.0002499999999999997
1619,0.36365824937820435,0.4668874442577362,0.95,0.85,0.0002499999999999997
1620,0.36365729570388794,0.46685874462127686,0.95,0.85,0.0002499999999999997
1621,0.363656222820282,0.46683037281036377,0.95,0.85,0.0002499999999999997
1622,0.3636551797389984,0.46680206060409546,0.95,0.85,0.0002499999999999997
1623,0.36365416646003723,0.46677395701408386,0.95,0.85,0.0002499999999999997
1624,0.36365315318107605,0.466746062040329,0.95,0.85,0.0002499999999999997
1625,0.3636521100997925,0.46671831607818604,0.95,0.85,0.0002499999999999997
1626,0.3636511266231537,0.46669086813926697,0.95,0.85,0.0002499999999999997
1627,0.3636500835418701,0.4666634798049927,0.95,0.85,0.0002499999999999997
1628,0.3636491298675537,0.4666364789009094,0.95,0.85,0.0002499999999999997
1629,0.3636481463909149,0.46660950779914856,0.95,0.85,0.0002499999999999997
1630,0.36364710330963135,0.4665828049182892,0.95,0.85,0.0002499999999999997
1631,0.36364614963531494,0.4665563106536865,0.95,0.85,0.0002499999999999997
1632,0.36364516615867615,0.46652987599372864,0.95,0.85,0.0002499999999999997
1633,0.36364418268203735,0.4665038585662842,0.95,0.85,0.0002499999999999997
1634,0.3636431396007538,0.4664779603481293,0.95,0.85,0.0002499999999999997
1635,0.36364224553108215,0.4664522111415863,0.95,0.85,0.0002499999999999997
1636,0.3636412024497986,0.466426819562912,0.95,0.85,0.0002499999999999997
1637,0.36364033818244934,0.46640145778656006,0.95,0.85,0.0002499999999999997
1638,0.36363929510116577,0.46637630462646484,0.95,0.85,0.0002499999999999997
1639,0.36363834142684937,0.46635136008262634,0.95,0.85,0.0002499999999999997
1640,0.36363738775253296,0.46632668375968933,0.95,0.85,0.0002499999999999997
1641,0.36363646388053894,0.4663020968437195,0.95,0.85,0.0002499999999999997
1642,0.36363551020622253,0.4662778079509735,0.95,0.85,0.0002499999999999997
1643,0.36363452672958374,0.46625378727912903,0.95,0.85,0.0002499999999999997
1644,0.3636336624622345,0.4662298262119293,0.95,0.85,0.0002499999999999997
1645,0.3636327385902405,0.4662061333656311,0.95,0.85,0.0002499999999999997
1646,0.3636317849159241,0.466182678937912,0.95,0.85,0.0002499999999999997
1647,0.36363083124160767,0.4661594331264496,0.95,0.85,0.0002499999999999997
1648,0.36362984776496887,0.46613627672195435,0.95,0.85,0.0002499999999999997
1649,0.36362892389297485,0.4661133289337158,0.95,0.85,0.0002499999999999997
1650,0.363628089427948,0.46609070897102356,0.95,0.85,0.0002499999999999997
1651,0.3636271357536316,0.4660681486129761,0.95,0.85,0.0002499999999999997
1652,0.36362624168395996,0.4660457372665405,0.95,0.85,0.0002499999999999997
1653,0.36362534761428833,0.4660235643386841,0.95,0.85,0.0002499999999999997
1654,0.3636244237422943,0.4660017788410187,0.95,0.85,0.0002499999999999997
1655,0.3636235296726227,0.46598008275032043,0.95,0.85,0.0002499999999999997
1656,0.36362263560295105,0.46595850586891174,0.95,0.85,0.0002499999999999997
1657,0.3636217415332794,0.46593722701072693,0.95,0.85,0.0002499999999999997
1658,0.3636208772659302,0.46591606736183167,0.95,0.85,0.0002499999999999997
1659,0.36361992359161377,0.4658951461315155,0.95,0.85,0.0002499999999999997
1660,0.3636190891265869,0.4658743143081665,0.95,0.85,0.0002499999999999997
1661,0.36361825466156006,0.4658536911010742,0.95,0.85,0.0002499999999999997
1662,0.3636173605918884,0.4658333659172058,0.95,0.85,0.0002499999999999997
1663,0.363616406917572,0.46581318974494934,0.95,0.85,0.0002499999999999997
1664,0.36361557245254517,0.4657931923866272,0.95,0.85,0.0002499999999999997
1665,0.36361467838287354,0.465773344039917,0.95,0.85,0.0002499999999999997
1666,0.3636138439178467,0.4657537043094635,0.95,0.85,0.0002499999999999997
1667,0.36361297965049744,0.46573424339294434,0.95,0.85,0.0002499999999999997
